1645651859.00
64.000000
-0.00
-0.00
-0.00
-0.00
-0.00
-0.00
-0.00
-0.00
-0.00
-0.00
0.00
0.01
0.01
-0.00
-0.03
-0.05
-0.05
0.00
0.13
0.36
0.66
1.01
1.37
1.72
2.04
2.39
2.79
3.27
3.86
4.50
5.11
5.62
6.01
6.30
6.58
6.98
7.56
8.42
9.47
10.54
11.50
12.26
12.91
13.64
14.72
16.32
18.64
21.43
24.35
27.03
29.27
31.22
33.31
36.10
39.98
45.29
51.53
57.96
63.82
68.71
72.86
77.03
82.26
89.26
98.52
109.21
120.09
129.89
137.93
144.51
150.81
158.76
167.46
179.09
193.75
210.80
228.38
243.37
251.79
249.73
234.67
206.32
167.14
120.60
70.34
18.71
-33.71
-87.48
-142.88
-198.57
-251.16
-295.53
-327.18
-343.49
-344.88
-334.49
-316.88
-296.32
-275.49
-255.23
-235.22
-215.39
-196.25
-178.82
-163.94
-151.60
-140.84
-130.23
-118.61
-105.64
-92.00
-78.96
-67.71
-58.81
-51.98
-46.36
-40.90
-34.87
-28.15
-21.15
-14.58
-9.02
-4.72
-1.55
0.92
3.20
5.68
8.47
11.45
14.29
16.62
18.21
19.02
19.24
19.18
19.11
19.16
19.32
19.44
19.41
19.18
18.76
18.22
17.60
16.85
15.92
14.78
13.48
12.16
10.96
10.00
9.32
8.89
8.62
8.44
8.29
8.17
8.08
8.00
7.89
7.71
7.44
7.13
6.83
6.62
6.54
6.56
6.62
6.63
6.55
6.39
6.19
6.00
5.87
5.77
5.67
5.54
5.36
5.17
5.01
4.94
4.98
5.10
5.25
5.36
5.35
5.21
4.94
4.61
4.29
4.02
3.83
3.71
3.65
3.64
3.69
3.78
3.90
4.01
4.05
4.01
3.93
3.87
3.89
3.96
4.07
4.14
4.16
4.14
4.11
4.08
4.02
3.87
3.60
3.20
2.77
2.40
2.16
2.05
2.02
1.99
1.89
1.69
1.41
1.10
0.81
0.58
0.40
0.24
0.08
-0.08
-0.19
-0.19
-0.03
0.24
0.53
0.73
0.75
0.60
0.37
0.17
0.07
0.09
0.18
0.31
0.43
0.53
0.57
0.50
0.29
-0.04
-0.42
-0.76
-0.95
-0.98
-0.87
-0.70
-0.56
-0.47
-0.44
-0.42
-0.37
-0.27
-0.14
-0.00
0.10
0.13
0.10
0.06
0.05
0.14
0.35
0.65
1.00
1.31
1.52
1.59
1.47
1.20
0.84
0.49
0.27
0.23
0.36
0.57
0.74
0.73
0.50
0.06
-0.47
-0.98
-1.34
-1.51
-1.50
-1.37
-1.20
-1.02
-0.84
-0.64
-0.45
-0.30
-0.25
-0.36
-0.64
-0.99
-1.31
-1.48
-1.44
-1.21
-0.91
-0.67
-0.63
-0.87
-1.39
-2.07
-2.73
-3.09
-2.94
-2.10
-0.55
1.56
4.00
6.47
8.76
10.77
12.52
14.11
15.59
16.89
17.86
18.27
17.99
17.09
15.84
14.60
13.72
13.34
13.37
13.56
13.65
13.50
13.16
12.83
12.73
12.91
13.24
13.43
13.17
12.40
11.37
10.65
10.94
12.77
16.24
20.87
25.78
29.96
32.75
34.20
35.14
36.93
40.92
47.73
56.89
66.88
75.71
81.79
84.71
85.56
86.58
90.20
98.03
109.98
124.09
137.02
145.14
145.96
139.32
127.68
115.05
105.15
99.19
94.85
86.89
69.17
37.12
-10.65
-71.78
-140.46
-208.17
-264.89
-301.29
-311.94
-298.29
-269.75
-241.16
-226.93
-234.53
-260.81
-293.32
-316.23
-317.41
-292.93
-247.00
-188.28
-125.41
-64.36
-8.59
39.33
76.49
100.00
108.41
103.30
89.35
73.03
60.35
54.77
56.36
62.25
68.23
70.60
67.60
59.87
49.90
40.72
34.62
32.26
32.67
33.86
33.86
31.57
27.04
21.28
15.61
11.00
7.77
5.56
3.71
1.65
-0.83
-3.60
-6.39
-9.03
-11.58
-14.25
-17.24
-20.53
-23.94
-27.13
-29.81
-31.87
-33.30
-34.16
-34.47
-34.15
-33.07
-31.27
-28.98
-26.71
-25.13
-24.85
-26.33
-29.76
-35.03
-41.55
-48.11
-52.79
-53.28
-47.52
-34.61
-15.43
7.42
30.30
49.74
63.56
71.32
74.06
73.46
71.06
67.81
64.08
60.04
55.93
52.13
49.03
46.75
45.09
43.51
41.43
38.51
34.81
30.77
26.96
23.80
21.36
19.35
17.34
14.98
12.21
9.28
6.60
4.54
3.27
2.70
2.56
2.57
2.55
2.44
2.33
2.27
2.31
2.40
2.49
2.51
2.42
2.25
2.07
1.99
2.08
2.44
3.11
4.08
5.29
6.64
7.98
9.08
9.77
9.90
9.41
8.41
7.12
5.83
4.88
4.51
4.80
5.70
6.97
8.30
9.38
9.95
9.86
9.18
8.07
6.87
5.92
5.51
5.77
6.53
7.37
7.69
6.91
4.67
0.98
-3.82
-9.08
-14.03
-17.98
-20.40
-21.00
-19.75
-16.89
-12.90
-8.33
-3.82
0.11
3.10
4.99
5.83
5.83
5.31
4.55
3.76
3.01
2.26
1.42
0.49
-0.45
-1.27
-1.83
-2.05
-1.92
-1.45
-0.65
0.47
1.84
3.30
4.60
5.50
5.88
5.77
5.36
4.87
4.48
4.27
4.22
4.24
4.25
4.13
3.82
3.25
2.43
1.41
0.28
-0.82
-1.78
-2.50
-2.95
-3.13
-3.08
-2.87
-2.63
-2.44
-2.37
-2.39
-2.43
-2.38
-2.18
-1.86
-1.50
-1.23
-1.12
-1.16
-1.26
-1.27
-1.05
-0.56
0.17
1.04
1.98
2.91
3.73
4.37
4.70
4.62
4.08
3.16
2.09
1.15
0.54
0.33
0.37
0.39
0.16
-0.47
-1.50
-2.85
-4.46
-6.32
-8.39
-10.58
-12.67
-14.37
-15.42
-15.75
-15.52
-15.05
-14.67
-14.60
-14.82
-15.18
-15.46
-15.49
-15.24
-14.79
-14.27
-13.75
-13.23
-12.62
-11.80
-10.63
-9.05
-7.00
-4.54
-1.78
1.07
3.74
5.92
7.41
8.14
8.17
7.67
6.80
5.70
4.43
3.01
1.48
-0.11
-1.68
-3.11
-4.27
-4.98
-5.09
-4.51
-3.24
-1.44
0.64
2.75
4.73
6.57
8.33
10.06
11.69
13.02
13.86
14.07
13.73
13.03
12.24
11.58
11.09
10.73
10.38
9.94
9.37
8.66
7.82
6.83
5.65
4.26
2.69
1.03
-0.54
-1.85
-2.76
-3.23
-3.30
-3.08
-2.71
-2.31
-1.93
-1.61
-1.35
-1.16
-1.05
-1.01
-1.02
-1.03
-0.96
-0.75
-0.37
0.11
0.60
0.97
1.16
1.17
1.09
1.01
0.99
0.99
0.97
0.83
0.57
0.22
-0.18
-0.57
-0.98
-1.41
-1.85
-2.18
-2.27
-2.04
-1.46
-0.70
0.04
0.56
0.79
0.75
0.60
0.48
0.46
0.60
0.90
1.36
2.02
2.90
3.96
5.11
6.17
6.97
7.36
7.29
6.86
6.24
5.70
5.42
5.49
5.84
6.29
6.67
6.88
6.90
6.76
6.48
6.02
5.34
4.41
3.31
2.17
1.17
0.43
-0.03
-0.26
-0.32
-0.28
-0.16
0.09
0.48
1.02
1.64
2.27
2.80
3.15
3.23
2.98
2.33
1.24
-0.29
-2.18
-4.25
-6.29
-8.07
-9.43
-10.31
-10.76
-10.86
-10.70
-10.36
-9.88
-9.31
-8.66
-7.98
-7.27
-6.54
-5.81
-5.12
-4.52
-4.07
-3.76
-3.54
-3.34
-3.12
-2.88
-2.67
-2.54
-2.52
-2.57
-2.61
-2.55
-2.34
-2.02
-1.66
-1.36
-1.17
-1.07
-0.99
-0.84
-0.60
-0.31
-0.06
0.06
0.04
-0.07
-0.18
-0.25
-0.29
-0.31
-0.34
-0.37
-0.34
-0.23
-0.06
0.11
0.20
0.20
0.14
0.09
0.09
0.13
0.11
-0.04
-0.33
-0.69
-0.97
-1.07
-0.94
-0.65
-0.32
-0.07
0.03
-0.03
-0.18
-0.37
-0.57
-0.74
-0.87
-0.94
-0.93
-0.84
-0.69
-0.57
-0.52
-0.59
-0.75
-0.93
-1.03
-0.97
-0.74
-0.38
0.01
0.37
0.67
0.93
1.20
1.52
1.83
2.03
2.03
1.78
1.36
0.90
0.57
0.42
0.42
0.47
0.51
0.53
0.62
0.85
1.24
1.68
2.01
2.06
1.77
1.21
0.57
0.05
-0.24
-0.29
-0.20
-0.10
-0.07
-0.12
-0.21
-0.30
-0.37
-0.44
-0.50
-0.53
-0.53
-0.49
-0.45
-0.46
-0.56
-0.71
-0.82
-0.78
-0.53
-0.16
0.18
0.34
0.26
0.02
-0.25
-0.38
-0.33
-0.12
0.15
0.39
0.54
0.63
0.70
0.81
0.96
1.16
1.36
1.49
1.50
1.39
1.19
0.98
0.85
0.83
0.94
1.10
1.24
1.30
1.29
1.25
1.22
1.19
1.14
1.03
0.91
0.83
0.91
1.18
1.62
2.09
2.46
2.64
2.63
2.54
2.46
2.45
2.49
2.48
2.33
2.01
1.52
0.93
0.34
-0.21
-0.68
-1.04
-1.33
-1.61
-2.01
-2.71
-3.87
-5.56
-7.70
-10.02
-12.17
-13.80
-14.76
-15.15
-15.32
-15.75
-16.79
-18.52
-20.71
-22.88
-24.57
-25.53
-25.84
-25.87
-26.12
-27.03
-28.89
-31.77
-35.42
-39.18
-41.92
-42.22
-38.77
-30.96
-19.27
-5.29
8.79
20.94
29.93
35.57
38.49
39.57
39.49
38.51
36.64
33.93
30.64
27.28
24.40
22.38
21.33
21.09
21.39
21.94
22.61
23.39
24.29
25.28
26.14
26.54
26.16
24.87
22.77
20.28
17.93
16.21
15.34
15.28
15.74
16.38
16.91
17.21
17.33
17.35
17.31
17.13
16.57
15.35
13.28
10.33
6.73
2.96
-0.39
-2.79
-3.94
-3.86
-2.92
-1.66
-0.63
-0.21
-0.50
-1.39
-2.60
-3.84
-4.84
-5.32
-5.10
-4.09
-2.49
-0.79
0.24
-0.17
-2.50
-6.69
-12.09
-17.68
-22.43
-25.68
-27.26
-27.51
-26.95
-26.11
-25.32
-24.71
-24.22
-23.76
-23.24
-22.67
-22.12
-21.66
-21.36
-21.14
-20.84
-20.24
-19.17
-17.55
-15.37
-12.72
-9.67
-6.33
-2.85
0.55
3.53
5.80
7.13
7.52
7.15
6.32
5.32
4.33
3.40
2.50
1.63
0.94
0.69
1.14
2.43
4.44
6.78
8.93
10.40
10.97
10.63
9.61
8.16
6.53
4.93
3.54
2.61
2.35
2.86
4.02
5.46
6.66
7.12
6.53
4.91
2.59
0.09
-2.04
-3.39
-3.80
-3.37
-2.38
-1.20
-0.19
0.40
0.48
0.11
-0.52
-1.19
-1.65
-1.77
-1.52
-0.98
-0.33
0.22
0.51
0.46
0.06
-0.59
-1.36
-2.11
-2.77
-3.32
-3.79
-4.22
-4.61
-4.89
-5.02
-4.98
-4.79
-4.51
-4.16
-3.73
-3.17
-2.51
-1.85
-1.35
-1.13
-1.24
-1.59
-2.02
-2.39
-2.62
-2.67
-2.53
-2.23
-1.79
-1.29
-0.83
-0.49
-0.26
-0.08
0.18
0.63
1.32
2.20
3.19
4.18
5.06
5.74
6.13
6.23
6.11
5.92
5.82
5.93
6.27
6.71
7.06
7.13
6.84
6.21
5.38
4.53
3.83
3.36
3.12
3.01
2.93
2.81
2.62
2.39
2.18
2.01
1.88
1.72
1.49
1.16
0.81
0.51
0.34
0.34
0.45
0.60
0.72
0.81
0.92
1.09
1.35
1.64
1.85
1.89
1.75
1.49
1.23
1.07
1.09
1.29
1.62
2.03
2.48
2.96
3.44
3.84
4.07
3.96
3.43
2.46
1.15
-0.32
-1.76
-3.02
-4.04
-4.82
-5.35
-5.61
-5.57
-5.21
-4.59
-3.88
-3.27
-2.93
-2.96
-3.32
-3.89
-4.49
-4.97
-5.21
-5.20
-5.00
-4.70
-4.38
-4.10
-3.82
-3.50
-3.09
-2.57
-1.94
-1.27
-0.63
-0.09
0.25
0.32
0.07
-0.46
-1.20
-2.01
-2.76
-3.41
-3.98
-4.59
-5.35
-6.24
-7.09
-7.59
-7.36
-6.13
-3.89
-0.85
2.52
5.68
8.19
9.76
10.34
10.04
9.10
7.75
6.23
4.73
3.40
2.35
1.63
1.26
1.21
1.42
1.80
2.21
2.54
2.65
2.51
2.13
1.61
1.06
0.58
0.18
-0.15
-0.45
-0.71
-0.88
-0.91
-0.78
-0.51
-0.21
0.05
0.23
0.34
0.43
0.55
0.67
0.73
0.67
0.47
0.20
-0.07
-0.27
-0.39
-0.49
-0.62
-0.82
-1.05
-1.27
-1.44
-1.55
-1.64
-1.74
-1.82
-1.85
-1.72
-1.41
-0.94
-0.37
0.19
0.70
1.14
1.55
1.93
2.27
2.52
2.65
2.63
2.52
2.36
2.22
2.13
2.09
2.09
2.14
2.25
2.43
2.71
3.08
3.49
3.90
4.24
4.49
4.64
4.74
4.80
4.87
4.99
5.21
5.61
6.24
7.07
7.99
8.85
9.49
9.91
10.22
10.67
11.52
12.86
14.65
16.64
18.58
20.24
21.51
22.43
23.08
23.58
24.03
24.43
24.60
24.20
22.73
19.68
14.71
7.86
-0.39
-9.24
-17.72
-24.96
-30.40
-33.83
-35.40
-35.50
-34.64
-33.30
-31.83
-30.41
-29.07
-27.69
-26.04
-23.91
-21.16
-17.73
-13.77
-9.61
-5.66
-2.31
0.20
1.89
2.96
3.71
4.31
4.83
5.14
5.13
4.74
4.05
3.22
2.38
1.61
0.89
0.20
-0.46
-1.00
-1.33
-1.37
-1.17
-0.85
-0.59
-0.49
-0.61
-0.93
-1.39
-1.95
-2.56
-3.18
-3.76
-4.20
-4.41
-4.35
-4.04
-3.57
-3.08
-2.65
-2.36
-2.22
-2.20
-2.23
-2.25
-2.19
-2.04
-1.83
-1.61
-1.38
-1.16
-0.92
-0.62
-0.32
-0.08
0.01
-0.04
-0.15
-0.21
-0.13
0.07
0.25
0.28
0.10
-0.24
-0.59
-0.79
-0.77
-0.59
-0.38
-0.30
-0.41
-0.71
-1.06
-1.30
-1.28
-0.96
-0.42
0.16
0.56
0.66
0.43
-0.01
-0.47
-0.79
-0.88
-0.76
-0.52
-0.27
-0.10
-0.04
-0.09
-0.24
-0.45
-0.70
-0.95
-1.18
-1.35
-1.45
-1.51
-1.55
-1.61
-1.74
-1.94
-2.20
-2.51
-2.87
-3.27
-3.71
-4.15
-4.55
-4.90
-5.15
-5.33
-5.44
-5.52
-5.59
-5.73
-5.95
-6.28
-6.69
-7.11
-7.45
-7.60
-7.49
-7.04
-6.14
-4.63
-2.31
0.90
4.91
9.29
13.39
16.51
18.21
18.46
17.68
16.59
15.88
15.90
16.62
17.61
18.35
18.46
17.86
16.84
15.91
15.54
16.00
17.19
18.74
20.22
21.32
21.99
22.41
22.86
23.50
24.45
25.95
28.36
31.92
36.05
38.96
37.87
30.19
15.01
-5.86
-28.21
-46.92
-58.00
-59.94
-53.71
-41.69
-26.26
-9.08
8.74
26.03
41.14
52.34
58.64
60.54
59.98
59.50
61.00
64.98
70.20
74.33
75.06
71.14
62.91
52.28
41.93
34.27
30.57
30.58
32.70
34.65
34.05
29.09
18.81
3.36
-16.02
-37.19
-57.58
-74.83
-87.41
-94.89
-97.90
-97.59
-95.17
-91.55
-87.31
-82.91
-78.84
-75.56
-73.34
-72.09
-71.33
-70.42
-68.86
-66.53
-63.77
-61.22
-59.46
-58.76
-58.98
-59.60
-59.98
-59.63
-58.41
-56.57
-54.70
-53.43
-53.31
-54.54
-56.99
-60.21
-63.51
-66.12
-67.26
-66.30
-62.82
-56.84
-48.80
-39.44
-29.51
-19.42
-9.07
1.96
13.99
26.83
39.58
50.95
59.76
65.46
68.28
69.05
68.64
67.61
66.09
63.94
61.10
57.79
54.44
51.51
49.21
47.45
45.84
43.92
41.36
38.13
34.46
30.77
27.46
24.75
22.57
20.65
18.68
16.46
14.03
11.61
9.50
7.86
6.65
5.69
4.69
3.46
1.95
0.26
-1.41
-2.92
-4.18
-5.21
-6.15
-7.14
-8.30
-9.67
-11.24
-12.90
-14.50
-15.93
-17.14
-18.22
-19.42
-20.99
-23.10
-25.68
-28.35
-30.56
-31.78
-31.81
-30.80
-29.19
-27.40
-25.58
-23.55
-20.84
-16.91
-11.40
-4.21
4.44
14.03
23.85
33.24
41.73
49.16
55.68
61.47
66.54
70.56
73.03
73.58
72.35
70.08
67.91
66.93
67.74
70.34
74.12
77.87
79.80
77.63
69.20
53.42
31.14
5.38
-19.41
-38.99
-50.89
-55.20
-54.14
-50.65
-46.96
-43.92
-41.23
-38.32
-35.08
-32.02
-29.82
-28.73
-28.39
-27.98
-26.75
-24.44
-21.33
-18.18
-15.71
-14.30
-13.83
-13.77
-13.44
-12.37
-10.44
-7.95
-5.46
-3.50
-2.42
-2.17
-2.47
-2.84
-2.89
-2.44
-1.54
-0.43
0.54
1.11
1.19
0.86
0.41
0.10
0.13
0.50
1.03
1.51
1.73
1.66
1.36
1.01
0.73
0.60
0.61
0.73
0.93
1.17
1.43
1.63
1.68
1.48
1.01
0.36
-0.31
-0.79
-0.93
-0.73
-0.36
-0.04
-0.01
-0.33
-0.90
-1.50
-1.88
-1.92
-1.68
-1.34
-1.07
-0.97
-0.99
-1.02
-0.99
-0.85
-0.66
-0.45
-0.23
0.03
0.37
0.77
1.16
1.43
1.55
1.52
1.43
1.35
1.31
1.27
1.14
0.90
0.56
0.22
0.02
0.01
0.21
0.52
0.82
0.99
1.01
0.93
0.84
0.84
1.01
1.35
1.82
2.32
2.74
2.98
2.98
2.75
2.36
1.91
1.46
1.06
0.68
0.33
0.02
-0.19
-0.27
-0.21
-0.09
-0.01
-0.03
-0.14
-0.27
-0.35
-0.34
-0.31
-0.36
-0.55
-0.88
-1.26
-1.56
-1.72
-1.76
-1.74
-1.71
-1.67
-1.59
-1.41
-1.13
-0.80
-0.50
-0.25
-0.02
0.24
0.55
0.87
1.14
1.29
1.33
1.32
1.33
1.42
1.58
1.73
1.81
1.78
1.62
1.35
1.01
0.63
0.30
0.07
-0.03
0.01
0.13
0.24
0.27
0.16
-0.06
-0.37
-0.67
-0.89
-0.95
-0.87
-0.71
-0.58
-0.59
-0.76
-1.04
-1.30
-1.43
-1.41
-1.28
-1.15
-1.10
-1.14
-1.23
-1.33
-1.43
-1.54
-1.66
-1.80
-1.88
-1.84
-1.62
-1.23
-0.71
-0.16
0.33
0.69
0.88
0.87
0.71
0.46
0.24
0.18
0.37
0.77
1.28
1.71
1.89
1.75
1.35
0.79
0.24
-0.15
-0.34
-0.31
-0.14
0.10
0.31
0.41
0.36
0.17
-0.12
-0.41
-0.63
-0.72
-0.68
-0.53
-0.35
-0.20
-0.16
-0.25
-0.46
-0.73
-0.92
-0.91
-0.64
-0.12
0.54
1.15
1.52
1.56
1.30
0.90
0.60
0.55
0.79
1.15
1.39
1.31
0.87
0.21
-0.41
-0.79
-0.87
-0.75
-0.59
-0.51
-0.50
-0.49
-0.39
-0.20
-0.04
-0.01
-0.12
-0.30
-0.37
-0.19
0.25
0.85
1.41
1.74
1.74
1.39
0.79
0.09
-0.54
-0.99
-1.16
-1.08
-0.83
-0.54
-0.32
-0.25
-0.33
-0.51
-0.74
-0.98
-1.19
-1.37
-1.44
-1.38
-1.14
-0.78
-0.39
-0.06
0.14
0.23
0.29
0.38
0.54
0.75
0.92
1.02
1.03
0.98
0.91
0.85
0.80
0.77
0.77
0.78
0.79
0.78
0.76
0.73
0.73
0.79
0.88
0.98
1.02
0.95
0.81
0.62
0.46
0.36
0.30
0.25
0.20
0.14
0.09
0.07
0.08
0.09
0.04
-0.10
-0.33
-0.64
-0.95
-1.21
-1.38
-1.44
-1.39
-1.28
-1.13
-0.94
-0.70
-0.40
-0.04
0.33
0.61
0.70
0.59
0.36
0.16
0.14
0.32
0.63
0.93
1.09
1.03
0.74
0.29
-0.27
-0.86
-1.39
-1.78
-1.91
-1.75
-1.35
-0.83
-0.31
0.10
0.39
0.55
0.61
0.54
0.34
0.02
-0.34
-0.64
-0.82
-0.87
-0.82
-0.75
-0.69
-0.66
-0.63
-0.56
-0.46
-0.33
-0.20
-0.09
-0.04
-0.06
-0.13
-0.20
-0.20
-0.09
0.13
0.40
0.62
0.69
0.60
0.41
0.17
-0.05
-0.22
-0.34
-0.43
-0.48
-0.50
-0.51
-0.52
-0.55
-0.59
-0.58
-0.45
-0.17
0.24
0.67
1.01
1.17
1.13
0.97
0.79
0.68
0.67
0.73
0.82
0.91
0.98
1.02
0.99
0.85
0.56
0.09
-0.48
-1.03
-1.38
-1.44
-1.18
-0.72
-0.24
0.10
0.19
0.06
-0.18
-0.41
-0.55
-0.58
-0.53
-0.44
-0.32
-0.20
-0.09
-0.04
-0.10
-0.29
-0.58
-0.87
-1.08
-1.17
-1.14
-1.03
-0.90
-0.74
-0.55
-0.35
-0.18
-0.08
-0.11
-0.24
-0.38
-0.45
-0.37
-0.16
0.10
0.31
0.36
0.23
-0.04
-0.32
-0.50
-0.50
-0.27
0.13
0.59
1.01
1.31
1.51
1.64
1.74
1.77
1.70
1.47
1.12
0.72
0.40
0.22
0.18
0.21
0.23
0.23
0.23
0.28
0.38
0.47
0.47
0.36
0.17
0.00
-0.07
-0.05
0.01
0.03
-0.05
-0.20
-0.35
-0.41
-0.36
-0.24
-0.11
-0.03
-0.02
-0.08
-0.19
-0.37
-0.60
-0.86
-1.07
-1.13
-0.97
-0.57
-0.03
0.52
0.92
1.09
1.04
0.82
0.50
0.16
-0.15
-0.38
-0.50
-0.49
-0.37
-0.17
0.00
0.08
-0.01
-0.24
-0.55
-0.82
-0.95
-0.89
-0.65
-0.33
-0.05
0.10
0.12
0.08
0.05
0.07
0.10
0.11
0.05
-0.08
-0.26
-0.45
-0.63
-0.76
-0.84
-0.80
-0.65
-0.37
-0.04
0.26
0.46
0.50
0.40
0.22
0.07
0.02
0.13
0.35
0.62
0.82
0.86
0.74
0.52
0.33
0.26
0.35
0.54
0.70
0.73
0.59
0.31
-0.02
-0.32
-0.53
-0.61
-0.60
-0.53
-0.43
-0.32
-0.20
-0.08
0.01
0.04
-0.00
-0.10
-0.19
-0.23
-0.18
-0.06
0.09
0.20
0.27
0.30
0.30
0.28
0.23
0.12
-0.03
-0.18
-0.27
-0.24
-0.11
0.07
0.22
0.28
0.23
0.11
-0.01
-0.08
-0.08
-0.01
0.10
0.21
0.28
0.32
0.34
0.37
0.42
0.47
0.49
0.45
0.34
0.19
0.06
0.00
0.03
0.11
0.20
0.23
0.17
0.04
-0.11
-0.26
-0.37
-0.47
-0.53
-0.55
-0.45
-0.22
0.14
0.54
0.81
0.85
0.65
0.29
-0.07
-0.31
-0.42
-0.49
-0.61
-0.82
-1.04
-1.16
-1.05
-0.73
-0.30
0.05
0.17
0.03
-0.27
-0.58
-0.75
-0.72
-0.51
-0.21
0.04
0.15
0.11
-0.01
-0.12
-0.09
0.11
0.46
0.85
1.14
1.24
1.08
0.72
0.25
-0.18
-0.47
-0.60
-0.60
-0.53
-0.46
-0.37
-0.25
-0.03
0.29
0.66
0.97
1.13
1.09
0.90
0.68
0.52
0.49
0.53
0.59
0.57
0.45
0.25
0.01
-0.20
-0.33
-0.39
-0.40
-0.36
-0.29
-0.15
0.05
0.27
0.45
0.53
0.53
0.53
0.62
0.88
1.26
1.66
1.95
2.06
2.04
2.00
2.02
2.14
2.29
2.38
2.37
2.34
2.43
2.78
3.38
4.12
4.77
5.16
5.25
5.15
5.06
5.18
5.55
6.07
6.57
6.90
7.03
7.04
7.04
7.09
7.11
6.95
6.42
5.37
3.77
1.73
-0.55
-2.82
-4.84
-6.45
-7.60
-8.33
-8.74
-8.94
-9.00
-8.94
-8.79
-8.56
-8.30
-8.06
-7.86
-7.69
-7.45
-7.05
-6.44
-5.66
-4.80
-4.03
-3.47
-3.17
-3.07
-3.02
-2.86
-2.50
-1.96
-1.39
-0.95
-0.75
-0.77
-0.92
-1.04
-1.02
-0.85
-0.58
-0.32
-0.09
0.07
0.22
0.38
0.57
0.74
0.86
0.91
0.88
0.82
0.77
0.77
0.80
0.84
0.87
0.87
0.89
0.96
1.11
1.32
1.53
1.62
1.53
1.25
0.87
0.49
0.18
-0.03
-0.17
-0.32
-0.49
-0.68
-0.82
-0.85
-0.75
-0.54
-0.29
-0.07
0.05
0.04
-0.08
-0.26
-0.45
-0.60
-0.69
-0.73
-0.73
-0.70
-0.62
-0.46
-0.24
-0.03
0.07
-0.04
-0.34
-0.75
-1.09
-1.21
-1.05
-0.69
-0.28
0.03
0.16
0.13
0.03
-0.09
-0.19
-0.32
-0.51
-0.72
-0.90
-0.91
-0.69
-0.24
0.32
0.84
1.16
1.21
1.03
0.76
0.52
0.42
0.47
0.62
0.76
0.80
0.68
0.43
0.15
-0.06
-0.11
0.00
0.20
0.37
0.40
0.24
-0.05
-0.38
-0.63
-0.73
-0.69
-0.57
-0.48
-0.48
-0.59
-0.75
-0.86
-0.84
-0.67
-0.39
-0.12
0.05
0.10
0.06
0.02
0.05
0.16
0.31
0.39
0.37
0.24
0.11
0.08
0.21
0.44
0.63
0.61
0.32
-0.17
-0.64
-0.89
-0.82
-0.48
-0.06
0.26
0.40
0.39
0.31
0.22
0.11
-0.06
-0.32
-0.65
-0.94
-1.12
-1.17
-1.15
-1.15
-1.21
-1.29
-1.27
-1.06
-0.63
-0.07
0.47
0.85
0.99
0.93
0.74
0.54
0.42
0.42
0.52
0.67
0.81
0.89
0.89
0.82
0.71
0.55
0.34
0.06
-0.26
-0.57
-0.78
-0.82
-0.69
-0.48
-0.31
-0.30
-0.49
-0.84
-1.25
-1.59
-1.83
-1.92
-1.89
-1.74
-1.47
-1.11
-0.70
-0.31
-0.00
0.21
0.34
0.43
0.50
0.55
0.52
0.35
0.01
-0.46
-0.98
-1.46
-1.81
-2.00
-2.05
-1.97
-1.80
-1.54
-1.19
-0.75
-0.25
0.25
0.66
0.93
1.00
0.91
0.69
0.43
0.17
-0.05
-0.25
-0.47
-0.79
-1.25
-1.83
-2.45
-2.96
-3.23
-3.21
-2.92
-2.43
-1.85
-1.22
-0.57
0.14
0.90
1.67
2.42
3.08
3.59
3.93
4.05
3.93
3.56
3.00
2.33
1.69
1.22
1.00
1.03
1.24
1.47
1.59
1.54
1.35
1.10
0.93
0.92
1.05
1.25
1.40
1.41
1.28
1.06
0.86
0.78
0.83
0.96
1.09
1.17
1.20
1.20
1.23
1.29
1.37
1.38
1.28
1.07
0.77
0.48
0.24
0.08
0.00
-0.04
-0.08
-0.14
-0.21
-0.27
-0.27
-0.19
-0.02
0.20
0.43
0.62
0.70
0.66
0.50
0.26
-0.00
-0.22
-0.34
-0.32
-0.22
-0.11
-0.07
-0.16
-0.32
-0.46
-0.50
-0.43
-0.33
-0.28
-0.35
-0.50
-0.67
-0.76
-0.72
-0.60
-0.47
-0.39
-0.39
-0.45
-0.48
-0.44
-0.32
-0.14
0.03
0.12
0.11
0.02
-0.06
-0.05
0.10
0.33
0.52
0.56
0.40
0.11
-0.19
-0.36
-0.36
-0.25
-0.14
-0.11
-0.12
-0.11
0.01
0.26
0.54
0.73
0.73
0.54
0.26
0.04
-0.02
0.05
0.14
0.14
-0.02
-0.29
-0.55
-0.65
-0.54
-0.25
0.07
0.25
0.19
-0.09
-0.46
-0.77
-0.91
-0.87
-0.71
-0.51
-0.35
-0.20
-0.04
0.18
0.41
0.59
0.63
0.49
0.26
0.04
-0.03
0.08
0.35
0.63
0.81
0.79
0.58
0.26
-0.05
-0.25
-0.33
-0.29
-0.20
-0.10
0.02
0.18
0.39
0.63
0.85
0.96
0.91
0.69
0.35
0.01
-0.22
-0.28
-0.18
0.00
0.18
0.31
0.35
0.34
0.29
0.22
0.11
-0.01
-0.12
-0.15
-0.09
0.04
0.18
0.28
0.33
0.38
0.47
0.62
0.79
0.94
1.01
0.99
0.92
0.84
0.77
0.73
0.74
0.80
0.92
1.10
1.27
1.33
1.21
0.88
0.38
-0.19
-0.67
-0.99
-1.13
-1.13
-1.06
-0.95
-0.82
-0.62
-0.34
0.01
0.39
0.71
0.94
1.08
1.12
1.08
0.96
0.76
0.49
0.21
0.00
-0.05
0.07
0.33
0.61
0.79
0.78
0.57
0.21
-0.19
-0.55
-0.82
-1.01
-1.15
-1.27
-1.37
-1.42
-1.41
-1.38
-1.35
-1.36
-1.44
-1.54
-1.61
-1.59
-1.46
-1.25
-1.03
-0.83
-0.69
-0.58
-0.47
-0.31
-0.09
0.15
0.34
0.37
0.18
-0.22
-0.71
-1.11
-1.28
-1.17
-0.86
-0.49
-0.19
-0.02
0.04
0.06
0.07
0.05
-0.04
-0.21
-0.43
-0.55
-0.49
-0.22
0.19
0.59
0.87
1.01
1.05
1.07
1.08
1.05
0.94
0.74
0.49
0.29
0.22
0.27
0.42
0.57
0.68
0.74
0.77
0.80
0.84
0.90
0.99
1.12
1.35
1.69
2.11
2.56
2.93
3.15
3.20
3.16
3.13
3.25
3.55
3.95
4.28
4.33
3.99
3.23
2.16
0.92
-0.35
-1.59
-2.73
-3.73
-4.54
-5.07
-5.28
-5.18
-4.87
-4.49
-4.16
-3.93
-3.77
-3.62
-3.45
-3.32
-3.30
-3.43
-3.64
-3.76
-3.60
-3.08
-2.33
-1.59
-1.12
-1.04
-1.24
-1.49
-1.53
-1.26
-0.74
-0.11
0.47
0.93
1.33
1.70
2.09
2.46
2.75
2.91
2.94
2.88
2.79
2.70
2.58
2.41
2.15
1.81
1.46
1.22
1.21
1.51
2.13
2.99
3.90
4.67
5.15
5.28
5.11
4.80
4.56
4.55
4.86
5.48
6.27
7.08
7.79
8.39
8.97
9.65
10.56
11.69
12.97
14.25
15.41
16.39
17.23
18.02
18.85
19.81
20.97
22.45
24.25
26.23
27.93
28.65
27.66
24.47
19.10
12.11
4.43
-2.97
-9.35
-14.40
-18.11
-20.71
-22.37
-23.25
-23.41
-22.95
-22.01
-20.80
-19.55
-18.43
-17.52
-16.79
-16.10
-15.32
-14.40
-13.40
-12.48
-11.81
-11.45
-11.33
-11.24
-10.94
-10.34
-9.50
-8.64
-8.01
-7.76
-7.84
-8.06
-8.16
-7.94
-7.35
-6.49
-5.56
-4.73
-4.12
-3.73
-3.51
-3.37
-3.27
-3.16
-3.02
-2.86
-2.67
-2.42
-2.12
-1.78
-1.42
-1.10
-0.85
-0.72
-0.68
-0.69
-0.72
-0.71
-0.68
-0.64
-0.62
-0.62
-0.60
-0.52
-0.34
-0.05
0.30
0.63
0.86
0.94
0.82
0.54
0.15
-0.25
-0.54
-0.64
-0.51
-0.21
0.18
0.53
0.78
0.88
0.82
0.63
0.35
0.03
-0.28
-0.46
-0.47
-0.27
0.08
0.50
0.88
1.14
1.26
1.19
0.95
0.51
-0.04
-0.59
-0.98
-1.10
-0.94
-0.62
-0.30
-0.14
-0.15
-0.23
-0.23
-0.06
0.20
0.40
0.39
0.10
-0.34
-0.74
-0.90
-0.75
-0.37
0.08
0.40
0.52
0.45
0.28
0.13
0.03
-0.04
-0.17
-0.38
-0.64
-0.86
-0.93
-0.82
-0.55
-0.19
0.12
0.33
0.39
0.35
0.24
0.10
-0.07
-0.28
-0.50
-0.69
-0.77
-0.69
-0.46
-0.17
0.07
0.20
0.21
0.18
0.19
0.27
0.37
0.41
0.28
-0.00
-0.35
-0.64
-0.72
-0.56
-0.20
0.20
0.49
0.58
0.48
0.30
0.16
0.16
0.27
0.43
0.53
0.54
0.48
0.45
0.49
0.58
0.62
0.52
0.26
-0.08
-0.38
-0.52
-0.47
-0.27
-0.02
0.17
0.28
0.32
0.34
0.37
0.39
0.38
0.28
0.12
-0.04
-0.12
-0.06
0.14
0.41
0.63
0.70
0.60
0.39
0.17
0.00
-0.09
-0.15
-0.25
-0.40
-0.56
-0.67
-0.68
-0.59
-0.46
-0.36
-0.32
-0.33
-0.37
-0.41
-0.43
-0.46
-0.51
-0.55
-0.56
-0.51
-0.41
-0.29
-0.19
-0.14
-0.14
-0.16
-0.17
-0.16
-0.10
-0.01
0.08
0.15
0.17
0.14
0.09
0.05
0.04
0.05
0.01
-0.07
-0.16
-0.17
-0.02
0.31
0.71
1.01
1.07
0.84
0.41
-0.05
-0.39
-0.52
-0.46
-0.32
-0.21
-0.21
-0.35
-0.61
-0.87
-1.05
-1.08
-0.97
-0.79
-0.62
-0.53
-0.50
-0.47
-0.38
-0.25
-0.16
-0.19
-0.34
-0.56
-0.72
-0.71
-0.52
-0.25
-0.02
0.08
0.01
-0.17
-0.40
-0.58
-0.65
-0.58
-0.34
0.06
0.58
1.13
1.60
1.92
2.04
1.99
1.83
1.64
1.47
1.35
1.30
1.30
1.35
1.39
1.35
1.16
0.83
0.43
0.10
-0.05
0.05
0.33
0.65
0.86
0.87
0.68
0.41
0.17
0.04
0.02
0.07
0.15
0.23
0.28
0.28
0.19
-0.03
-0.38
-0.81
-1.25
-1.58
-1.70
-1.58
-1.25
-0.82
-0.42
-0.16
-0.06
-0.12
-0.25
-0.40
-0.54
-0.68
-0.85
-1.03
-1.18
-1.22
-1.12
-0.92
-0.73
-0.64
-0.73
-0.94
-1.14
-1.17
-0.95
-0.48
0.12
0.68
1.08
1.27
1.33
1.37
1.46
1.63
1.82
1.97
2.03
2.02
1.98
1.92
1.84
1.71
1.50
1.22
0.91
0.60
0.31
0.06
-0.19
-0.44
-0.68
-0.88
-1.00
-1.03
-1.01
-0.97
-0.97
-1.04
-1.20
-1.41
-1.63
-1.77
-1.77
-1.60
-1.30
-0.97
-0.68
-0.49
-0.40
-0.36
-0.34
-0.30
-0.25
-0.22
-0.20
-0.15
-0.04
0.13
0.34
0.54
0.71
0.84
0.98
1.15
1.32
1.43
1.41
1.26
1.00
0.73
0.53
0.42
0.35
0.28
0.14
-0.02
-0.16
-0.21
-0.16
-0.06
-0.00
-0.07
-0.27
-0.55
-0.80
-0.92
-0.86
-0.65
-0.38
-0.15
-0.03
-0.05
-0.17
-0.33
-0.43
-0.42
-0.27
0.04
0.40
0.72
0.87
0.79
0.52
0.18
-0.03
-0.03
0.21
0.57
0.91
1.09
1.09
0.97
0.80
0.64
0.48
0.26
-0.05
-0.41
-0.74
-0.94
-0.95
-0.83
-0.67
-0.62
-0.73
-0.99
-1.27
-1.47
-1.50
-1.36
-1.09
-0.73
-0.34
0.03
0.33
0.47
0.43
0.22
-0.06
-0.28
-0.33
-0.19
0.08
0.38
0.60
0.66
0.54
0.28
-0.03
-0.26
-0.31
-0.14
0.23
0.67
1.02
1.16
1.06
0.79
0.46
0.18
0.04
0.04
0.15
0.32
0.49
0.60
0.59
0.46
0.19
-0.15
-0.47
-0.66
-0.63
-0.36
0.11
0.62
1.02
1.16
0.98
0.57
0.08
-0.29
-0.42
-0.31
-0.04
0.22
0.35
0.32
0.18
-0.00
-0.14
-0.22
-0.25
-0.26
-0.27
-0.26
-0.23
-0.20
-0.20
-0.26
-0.37
-0.48
-0.55
-0.58
-0.58
-0.59
-0.63
-0.71
-0.77
-0.77
-0.66
-0.46
-0.19
0.10
0.34
0.49
0.56
0.56
0.53
0.50
0.46
0.41
0.32
0.19
0.08
0.04
0.09
0.20
0.31
0.34
0.27
0.17
0.12
0.18
0.34
0.51
0.58
0.49
0.26
-0.03
-0.26
-0.39
-0.40
-0.31
-0.17
-0.04
0.05
0.07
0.02
-0.08
-0.19
-0.26
-0.23
-0.11
0.09
0.28
0.40
0.38
0.20
-0.12
-0.52
-0.91
-1.21
-1.36
-1.34
-1.16
-0.87
-0.52
-0.17
0.11
0.28
0.31
0.21
0.08
-0.02
-0.03
0.06
0.17
0.24
0.18
0.02
-0.21
-0.41
-0.52
-0.51
-0.42
-0.29
-0.14
0.05
0.34
0.79
1.35
1.88
2.20
2.17
1.74
1.00
0.12
-0.68
-1.27
-1.57
-1.57
-1.32
-0.91
-0.44
-0.04
0.20
0.25
0.15
-0.00
-0.10
-0.08
0.01
0.11
0.13
0.01
-0.20
-0.41
-0.51
-0.43
-0.17
0.21
0.57
0.81
0.83
0.66
0.34
-0.01
-0.28
-0.41
-0.37
-0.23
-0.08
-0.01
-0.06
-0.19
-0.32
-0.35
-0.27
-0.13
-0.03
-0.01
-0.05
-0.06
0.06
0.33
0.66
0.94
1.07
1.03
0.88
0.71
0.57
0.48
0.42
0.37
0.32
0.26
0.19
0.08
-0.11
-0.38
-0.68
-0.93
-1.06
-1.03
-0.88
-0.71
-0.59
-0.58
-0.64
-0.72
-0.72
-0.59
-0.35
-0.08
0.15
0.28
0.30
0.24
0.18
0.14
0.16
0.23
0.32
0.38
0.39
0.33
0.19
-0.01
-0.22
-0.39
-0.48
-0.47
-0.42
-0.41
-0.53
-0.79
-1.11
-1.38
-1.45
-1.28
-0.93
-0.54
-0.25
-0.12
-0.15
-0.24
-0.29
-0.28
-0.24
-0.21
-0.22
-0.27
-0.28
-0.23
-0.12
-0.03
-0.03
-0.17
-0.43
-0.72
-0.92
-0.94
-0.75
-0.37
0.14
0.68
1.20
1.65
2.00
2.23
2.36
2.39
2.33
2.16
1.85
1.42
0.91
0.45
0.14
0.08
0.26
0.59
0.94
1.20
1.29
1.21
0.99
0.65
0.22
-0.23
-0.61
-0.80
-0.72
-0.36
0.16
0.66
0.98
1.06
0.90
0.60
0.25
-0.08
-0.37
-0.58
-0.65
-0.55
-0.30
-0.01
0.19
0.17
-0.08
-0.43
-0.71
-0.80
-0.70
-0.47
-0.26
-0.13
-0.09
-0.09
-0.09
-0.06
-0.02
0.04
0.11
0.17
0.16
0.03
-0.26
-0.66
-1.03
-1.22
-1.12
-0.75
-0.24
0.23
0.55
0.66
0.61
0.50
0.44
0.48
0.63
0.79
0.88
0.82
0.61
0.33
0.09
-0.05
-0.11
-0.15
-0.23
-0.33
-0.38
-0.31
-0.10
0.15
0.33
0.34
0.20
-0.00
-0.17
-0.27
-0.31
-0.33
-0.35
-0.35
-0.32
-0.24
-0.14
-0.07
-0.09
-0.19
-0.36
-0.54
-0.67
-0.72
-0.69
-0.59
-0.45
-0.31
-0.21
-0.16
-0.16
-0.13
-0.03
0.19
0.52
0.88
1.12
1.09
0.73
0.12
-0.55
-1.00
-1.03
-0.61
0.14
0.97
1.61
1.92
1.85
1.48
0.89
0.17
-0.57
-1.21
-1.65
-1.77
-1.59
-1.20
-0.78
-0.49
-0.41
-0.47
-0.55
-0.53
-0.38
-0.21
-0.14
-0.27
-0.54
-0.80
-0.89
-0.72
-0.31
0.17
0.51
0.61
0.45
0.14
-0.16
-0.33
-0.36
-0.29
-0.21
-0.19
-0.23
-0.30
-0.37
-0.39
-0.35
-0.26
-0.12
0.05
0.22
0.37
0.46
0.46
0.38
0.26
0.21
0.28
0.50
0.79
1.04
1.14
1.01
0.69
0.26
-0.15
-0.42
-0.48
-0.33
0.01
0.44
0.84
1.12
1.18
1.03
0.73
0.39
0.12
-0.04
-0.11
-0.11
-0.09
-0.07
-0.03
-0.01
-0.00
-0.03
-0.08
-0.11
-0.09
-0.02
0.07
0.14
0.15
0.13
0.11
0.08
0.01
-0.15
-0.44
-0.78
-1.02
-1.03
-0.74
-0.22
0.33
0.70
0.79
0.61
0.28
-0.05
-0.31
-0.45
-0.53
-0.55
-0.53
-0.45
-0.31
-0.13
0.03
0.13
0.13
0.05
-0.09
-0.24
-0.34
-0.34
-0.21
-0.02
0.17
0.25
0.18
0.02
-0.14
-0.18
-0.05
0.21
0.48
0.64
0.64
0.46
0.15
-0.22
-0.58
-0.89
-1.09
-1.16
-1.07
-0.84
-0.50
-0.11
0.26
0.50
0.58
0.47
0.26
0.07
-0.00
0.08
0.26
0.45
0.52
0.46
0.29
0.08
-0.12
-0.29
-0.44
-0.59
-0.70
-0.73
-0.62
-0.36
0.01
0.38
0.66
0.78
0.72
0.52
0.24
-0.03
-0.23
-0.33
-0.29
-0.12
0.13
0.39
0.57
0.62
0.53
0.36
0.18
0.05
-0.02
-0.04
-0.03
-0.01
-0.03
-0.10
-0.21
-0.32
-0.37
-0.30
-0.08
0.25
0.56
0.70
0.56
0.17
-0.36
-0.82
-1.02
-0.90
-0.53
-0.09
0.27
0.46
0.50
0.46
0.41
0.35
0.23
-0.02
-0.35
-0.68
-0.86
-0.81
-0.52
-0.10
0.31
0.60
0.72
0.67
0.51
0.28
0.05
-0.13
-0.23
-0.25
-0.22
-0.22
-0.30
-0.48
-0.73
-0.99
-1.18
-1.24
-1.14
-0.91
-0.58
-0.19
0.22
0.60
0.90
1.10
1.18
1.15
1.03
0.87
0.71
0.56
0.44
0.34
0.26
0.20
0.20
0.26
0.36
0.46
0.49
0.44
0.33
0.22
0.15
0.10
0.06
-0.04
-0.22
-0.47
-0.74
-0.97
-1.10
-1.13
-1.05
-0.89
-0.68
-0.45
-0.24
-0.08
0.00
0.01
-0.03
-0.08
-0.09
-0.02
0.11
0.28
0.41
0.46
0.44
0.38
0.35
0.38
0.46
0.56
0.62
0.65
0.65
0.63
0.57
0.44
0.24
-0.02
-0.26
-0.40
-0.42
-0.34
-0.22
-0.14
-0.10
-0.08
-0.05
0.03
0.15
0.27
0.34
0.33
0.22
0.06
-0.11
-0.23
-0.29
-0.32
-0.34
-0.39
-0.46
-0.52
-0.51
-0.44
-0.35
-0.27
-0.24
-0.23
-0.15
0.04
0.34
0.65
0.84
0.83
0.61
0.29
0.00
-0.15
-0.13
0.03
0.24
0.41
0.46
0.35
0.14
-0.09
-0.24
-0.25
-0.14
0.01
0.11
0.12
0.11
0.14
0.28
0.46
0.58
0.51
0.25
-0.10
-0.37
-0.42
-0.22
0.16
0.57
0.86
0.93
0.79
0.49
0.09
-0.30
-0.60
-0.80
-0.87
-0.85
-0.76
-0.62
-0.41
-0.13
0.20
0.50
0.70
0.74
0.64
0.44
0.22
0.05
-0.05
-0.11
-0.16
-0.21
-0.23
-0.20
-0.10
0.03
0.11
0.05
-0.17
-0.50
-0.82
-1.00
-0.96
-0.69
-0.30
0.08
0.34
0.44
0.41
0.33
0.26
0.21
0.13
-0.04
-0.30
-0.59
-0.80
-0.80
-0.58
-0.21
0.12
0.29
0.24
0.05
-0.12
-0.16
-0.07
0.06
0.12
0.02
-0.23
-0.52
-0.73
-0.78
-0.68
-0.48
-0.30
-0.16
-0.08
-0.00
0.12
0.27
0.39
0.43
0.34
0.17
-0.00
-0.07
0.00
0.20
0.46
0.71
0.93
1.10
1.22
1.24
1.11
0.82
0.45
0.14
0.01
0.11
0.35
0.58
0.66
0.54
0.31
0.09
-0.02
-0.01
0.06
0.12
0.15
0.13
0.10
0.03
-0.11
-0.37
-0.71
-1.04
-1.25
-1.25
-1.07
-0.78
-0.51
-0.33
-0.23
-0.18
-0.11
-0.01
0.06
0.05
-0.09
-0.31
-0.51
-0.57
-0.43
-0.12
0.24
0.53
0.64
0.59
0.47
0.42
0.51
0.73
0.98
1.12
1.11
0.92
0.63
0.33
0.08
-0.08
-0.13
-0.05
0.13
0.37
0.60
0.74
0.74
0.60
0.38
0.15
-0.05
-0.20
-0.33
-0.44
-0.54
-0.60
-0.60
-0.52
-0.39
-0.24
-0.10
0.03
0.12
0.15
0.12
0.04
-0.05
-0.11
-0.13
-0.11
-0.13
-0.23
-0.47
-0.80
-1.16
-1.43
-1.50
-1.36
-1.04
-0.64
-0.26
0.01
0.14
0.15
0.08
0.01
-0.03
-0.01
0.04
0.08
0.12
0.14
0.18
0.26
0.39
0.53
0.64
0.71
0.73
0.73
0.73
0.71
0.63
0.45
0.17
-0.15
-0.41
-0.51
-0.43
-0.19
0.12
0.40
0.59
0.67
0.64
0.51
0.28
-0.03
-0.35
-0.58
-0.61
-0.41
-0.03
0.34
0.51
0.39
0.01
-0.47
-0.85
-1.02
-0.96
-0.78
-0.57
-0.41
-0.28
-0.14
0.03
0.19
0.26
0.19
-0.01
-0.26
-0.48
-0.59
-0.60
-0.54
-0.47
-0.39
-0.30
-0.14
0.08
0.33
0.55
0.68
0.70
0.65
0.57
0.48
0.38
0.25
0.09
-0.07
-0.21
-0.29
-0.27
-0.17
-0.03
0.08
0.13
0.09
-0.05
-0.21
-0.37
-0.47
-0.50
-0.46
-0.36
-0.24
-0.14
-0.12
-0.19
-0.33
-0.45
-0.46
-0.31
-0.01
0.31
0.51
0.50
0.29
0.01
-0.20
-0.23
-0.07
0.19
0.43
0.55
0.51
0.36
0.18
0.07
0.06
0.14
0.28
0.44
0.60
0.76
0.85
0.81
0.55
0.08
-0.52
-1.07
-1.41
-1.42
-1.15
-0.72
-0.27
0.06
0.25
0.30
0.24
0.11
-0.07
-0.25
-0.39
-0.46
-0.44
-0.36
-0.28
-0.22
-0.20
-0.21
-0.21
-0.20
-0.16
-0.11
-0.10
-0.13
-0.20
-0.22
-0.12
0.16
0.56
0.95
1.16
1.07
0.68
0.14
-0.37
-0.67
-0.67
-0.41
0.03
0.53
1.00
1.36
1.53
1.49
1.22
0.78
0.22
-0.34
-0.83
-1.18
-1.32
-1.24
-0.95
-0.53
-0.10
0.21
0.33
0.25
0.04
-0.19
-0.36
-0.44
-0.47
-0.48
-0.51
-0.52
-0.50
-0.44
-0.36
-0.33
-0.39
-0.56
-0.80
-1.00
-1.07
-0.94
-0.60
-0.13
0.36
0.75
0.98
1.07
1.07
1.07
1.10
1.14
1.14
1.06
0.89
0.64
0.39
0.19
0.08
0.06
0.11
0.21
0.35
0.50
0.64
0.73
0.75
0.69
0.57
0.44
0.31
0.19
0.05
-0.10
-0.25
-0.37
-0.38
-0.28
-0.09
0.10
0.17
0.09
-0.10
-0.31
-0.44
-0.45
-0.38
-0.29
-0.27
-0.34
-0.46
-0.56
-0.55
-0.40
-0.11
0.23
0.55
0.75
0.79
0.69
0.49
0.27
0.10
0.04
0.08
0.18
0.25
0.22
0.10
-0.06
-0.16
-0.12
0.09
0.36
0.54
0.51
0.24
-0.16
-0.50
-0.61
-0.43
-0.07
0.30
0.54
0.59
0.50
0.36
0.19
-0.00
-0.27
-0.60
-0.88
-0.99
-0.83
-0.44
-0.01
0.28
0.31
0.11
-0.16
-0.34
-0.32
-0.13
0.11
0.31
0.40
0.42
0.42
0.45
0.45
0.37
0.14
-0.21
-0.59
-0.87
-0.93
-0.78
-0.48
-0.18
0.01
0.04
-0.06
-0.21
-0.31
-0.36
-0.40
-0.47
-0.63
-0.84
-0.99
-0.97
-0.72
-0.28
0.23
0.63
0.83
0.81
0.63
0.40
0.18
0.02
-0.10
-0.18
-0.22
-0.19
-0.08
0.11
0.31
0.48
0.56
0.57
0.56
0.60
0.70
0.78
0.77
0.58
0.21
-0.21
-0.55
-0.72
-0.71
-0.60
-0.51
-0.52
-0.59
-0.66
-0.60
-0.41
-0.12
0.17
0.39
0.48
0.46
0.40
0.33
0.29
0.27
0.26
0.21
0.14
0.08
0.07
0.15
0.28
0.42
0.49
0.43
0.28
0.10
-0.01
-0.02
0.06
0.15
0.19
0.16
0.08
0.01
-0.04
-0.07
-0.13
-0.26
-0.45
-0.66
-0.84
-0.96
-1.00
-0.95
-0.82
-0.63
-0.41
-0.25
-0.18
-0.24
-0.36
-0.48
-0.52
-0.45
-0.30
-0.10
0.11
0.30
0.48
0.65
0.77
0.80
0.67
0.41
0.06
-0.24
-0.42
-0.42
-0.29
-0.12
0.03
0.10
0.10
0.04
-0.05
-0.15
-0.23
-0.23
-0.13
0.08
0.36
0.63
0.79
0.78
0.61
0.36
0.12
-0.04
-0.09
-0.06
0.03
0.12
0.21
0.26
0.27
0.21
0.08
-0.12
-0.35
-0.57
-0.72
-0.76
-0.70
-0.54
-0.35
-0.13
0.05
0.19
0.25
0.21
0.08
-0.12
-0.32
-0.43
-0.40
-0.22
0.05
0.30
0.43
0.39
0.22
-0.02
-0.23
-0.37
-0.42
-0.41
-0.34
-0.20
-0.00
0.23
0.42
0.48
0.40
0.21
0.00
-0.12
-0.11
0.02
0.22
0.41
0.53
0.58
0.55
0.49
0.43
0.39
0.38
0.38
0.33
0.20
-0.03
-0.29
-0.49
-0.55
-0.44
-0.23
-0.04
0.04
-0.05
-0.26
-0.51
-0.71
-0.81
-0.80
-0.71
-0.57
-0.37
-0.14
0.10
0.30
0.41
0.38
0.21
-0.07
-0.37
-0.62
-0.72
-0.65
-0.40
-0.05
0.31
0.56
0.66
0.64
0.56
0.50
0.48
0.49
0.47
0.43
0.37
0.31
0.27
0.22
0.11
-0.03
-0.15
-0.15
-0.00
0.27
0.55
0.70
0.64
0.37
0.00
-0.34
-0.57
-0.65
-0.62
-0.49
-0.29
0.01
0.38
0.76
1.05
1.16
1.03
0.73
0.36
0.08
-0.05
-0.01
0.13
0.27
0.34
0.30
0.16
-0.04
-0.22
-0.34
-0.36
-0.30
-0.22
-0.17
-0.18
-0.24
-0.29
-0.28
-0.21
-0.09
0.04
0.15
0.20
0.20
0.14
0.04
-0.08
-0.18
-0.24
-0.24
-0.23
-0.25
-0.34
-0.47
-0.60
-0.64
-0.56
-0.37
-0.13
0.11
0.33
0.54
0.75
0.91
0.98
0.90
0.65
0.27
-0.11
-0.38
-0.47
-0.38
-0.19
0.00
0.11
0.09
-0.05
-0.24
-0.38
-0.38
-0.18
0.20
0.65
1.03
1.19
1.05
0.64
0.08
-0.45
-0.81
-0.93
-0.85
-0.66
-0.48
-0.38
-0.39
-0.47
-0.54
-0.54
-0.45
-0.29
-0.09
0.10
0.25
0.36
0.40
0.35
0.19
-0.06
-0.33
-0.50
-0.48
-0.26
0.09
0.40
0.57
0.53
0.32
0.09
-0.07
-0.07
0.06
0.26
0.45
0.56
0.56
0.44
0.22
-0.05
-0.31
-0.48
-0.54
-0.47
-0.36
-0.26
-0.22
-0.23
-0.24
-0.20
-0.08
0.09
0.26
0.38
0.43
0.41
0.33
0.20
0.01
-0.22
-0.46
-0.63
-0.72
-0.72
-0.69
-0.66
-0.63
-0.57
-0.43
-0.18
0.14
0.45
0.66
0.73
0.68
0.56
0.47
0.43
0.46
0.50
0.51
0.46
0.36
0.25
0.16
0.10
0.02
-0.14
-0.40
-0.72
-1.01
-1.15
-1.09
-0.82
-0.43
-0.01
0.33
0.53
0.62
0.63
0.62
0.62
0.63
0.60
0.52
0.41
0.32
0.27
0.29
0.35
0.37
0.31
0.14
-0.12
-0.41
-0.65
-0.79
-0.79
-0.65
-0.42
-0.18
0.02
0.16
0.23
0.30
0.39
0.50
0.53
0.40
0.07
-0.42
-0.94
-1.31
-1.42
-1.24
-0.84
-0.36
0.07
0.40
0.59
0.67
0.67
0.63
0.54
0.41
0.25
0.09
-0.03
-0.13
-0.20
-0.28
-0.37
-0.45
-0.47
-0.40
-0.26
-0.12
-0.04
-0.06
-0.17
-0.27
-0.27
-0.09
0.25
0.66
0.99
1.13
1.05
0.79
0.46
0.17
-0.02
-0.15
-0.25
-0.39
-0.52
-0.59
-0.55
-0.42
-0.27
-0.21
-0.28
-0.44
-0.58
-0.57
-0.38
-0.01
0.41
0.74
0.87
0.78
0.52
0.21
-0.03
-0.11
-0.02
0.17
0.36
0.49
0.50
0.40
0.20
-0.06
-0.37
-0.68
-0.96
-1.15
-1.16
-0.96
-0.55
-0.01
0.55
0.97
1.14
1.02
0.68
0.26
-0.08
-0.25
-0.24
-0.12
-0.01
0.02
-0.02
-0.08
-0.10
-0.05
0.05
0.14
0.18
0.16
0.10
0.02
-0.07
-0.15
-0.26
-0.38
-0.48
-0.52
-0.47
-0.32
-0.13
0.06
0.22
0.36
0.50
0.66
0.82
0.91
0.91
0.82
0.66
0.52
0.43
0.41
0.45
0.50
0.50
0.43
0.27
0.06
-0.16
-0.31
-0.35
-0.29
-0.15
-0.01
0.06
0.05
-0.03
-0.11
-0.16
-0.16
-0.16
-0.18
-0.28
-0.45
-0.64
-0.81
-0.91
-0.91
-0.82
-0.66
-0.46
-0.27
-0.12
-0.04
-0.03
-0.06
-0.09
-0.08
-0.02
0.04
0.04
-0.07
-0.27
-0.46
-0.55
-0.45
-0.19
0.13
0.37
0.43
0.35
0.22
0.16
0.22
0.39
0.59
0.74
0.81
0.82
0.81
0.81
0.80
0.77
0.71
0.64
0.62
0.65
0.67
0.58
0.32
-0.10
-0.56
-0.91
-1.06
-1.04
-0.94
-0.92
-1.01
-1.19
-1.32
-1.30
-1.09
-0.75
-0.36
-0.00
0.29
0.49
0.58
0.51
0.25
-0.17
-0.61
-0.92
-0.97
-0.74
-0.31
0.15
0.49
0.65
0.65
0.58
0.49
0.40
0.28
0.11
-0.09
-0.26
-0.36
-0.36
-0.27
-0.14
0.02
0.18
0.34
0.48
0.58
0.61
0.57
0.49
0.42
0.37
0.33
0.27
0.16
0.03
-0.08
-0.09
0.00
0.18
0.36
0.45
0.40
0.25
0.07
-0.03
0.01
0.19
0.42
0.60
0.65
0.53
0.26
-0.10
-0.47
-0.78
-0.97
-1.00
-0.87
-0.58
-0.21
0.12
0.33
0.35
0.20
-0.04
-0.29
-0.48
-0.57
-0.54
-0.40
-0.14
0.21
0.59
0.89
1.03
0.93
0.65
0.28
-0.01
-0.14
-0.08
0.07
0.19
0.18
0.03
-0.18
-0.32
-0.30
-0.10
0.16
0.34
0.36
0.21
-0.02
-0.21
-0.29
-0.29
-0.26
-0.27
-0.31
-0.36
-0.37
-0.31
-0.18
0.00
0.18
0.31
0.31
0.17
-0.12
-0.49
-0.80
-0.95
-0.89
-0.62
-0.26
0.09
0.35
0.48
0.52
0.50
0.42
0.30
0.14
-0.04
-0.22
-0.37
-0.45
-0.41
-0.23
0.04
0.34
0.55
0.58
0.42
0.14
-0.14
-0.30
-0.32
-0.24
-0.15
-0.12
-0.17
-0.28
-0.38
-0.44
-0.44
-0.38
-0.24
-0.02
0.30
0.67
0.97
1.11
1.00
0.69
0.28
-0.08
-0.28
-0.27
-0.11
0.10
0.28
0.34
0.28
0.12
-0.08
-0.29
-0.45
-0.55
-0.59
-0.53
-0.37
-0.12
0.20
0.54
0.81
0.95
0.93
0.77
0.50
0.20
-0.07
-0.27
-0.39
-0.44
-0.47
-0.51
-0.57
-0.62
-0.61
-0.52
-0.37
-0.22
-0.15
-0.17
-0.22
-0.18
-0.00
0.30
0.61
0.79
0.76
0.56
0.30
0.11
0.04
0.03
0.01
-0.11
-0.33
-0.60
-0.82
-0.92
-0.88
-0.72
-0.46
-0.14
0.20
0.50
0.68
0.68
0.48
0.12
-0.27
-0.56
-0.59
-0.33
0.16
0.70
1.11
1.25
1.13
0.83
0.51
0.30
0.21
0.19
0.15
0.03
-0.15
-0.35
-0.50
-0.57
-0.56
-0.49
-0.35
-0.11
0.25
0.68
1.08
1.32
1.32
1.04
0.57
0.03
-0.41
-0.66
-0.72
-0.64
-0.53
-0.49
-0.56
-0.71
-0.85
-0.93
-0.90
-0.77
-0.60
-0.42
-0.25
-0.09
0.06
0.23
0.41
0.58
0.72
0.78
0.73
0.58
0.36
0.15
0.05
0.08
0.21
0.38
0.52
0.62
0.68
0.72
0.70
0.59
0.38
0.09
-0.18
-0.33
-0.34
-0.23
-0.13
-0.16
-0.35
-0.67
-1.01
-1.23
-1.24
-1.03
-0.67
-0.26
0.09
0.28
0.31
0.23
0.08
-0.08
-0.22
-0.34
-0.43
-0.46
-0.39
-0.21
0.06
0.36
0.60
0.73
0.74
0.62
0.40
0.12
-0.20
-0.51
-0.75
-0.88
-0.87
-0.73
-0.50
-0.27
-0.09
-0.00
-0.00
-0.07
-0.15
-0.22
-0.23
-0.20
-0.15
-0.12
-0.12
-0.14
-0.13
-0.04
0.14
0.37
0.55
0.60
0.46
0.20
-0.09
-0.26
-0.24
-0.05
0.20
0.38
0.41
0.30
0.12
0.01
0.02
0.19
0.45
0.70
0.87
0.90
0.76
0.51
0.19
-0.14
-0.43
-0.67
-0.88
-1.02
-1.09
-1.00
-0.73
-0.27
0.28
0.80
1.18
1.34
1.28
1.08
0.78
0.46
0.17
-0.06
-0.19
-0.20
-0.11
0.05
0.21
0.31
0.34
0.29
0.16
-0.02
-0.23
-0.42
-0.55
-0.60
-0.57
-0.52
-0.48
-0.50
-0.52
-0.51
-0.38
-0.11
0.23
0.51
0.60
0.44
0.07
-0.35
-0.67
-0.76
-0.67
-0.49
-0.36
-0.34
-0.39
-0.45
-0.46
-0.44
-0.46
-0.59
-0.79
-0.96
-0.98
-0.79
-0.45
-0.05
0.29
0.49
0.58
0.60
0.63
0.66
0.73
0.82
0.91
0.99
1.03
0.98
0.85
0.67
0.50
0.41
0.41
0.49
0.56
0.55
0.42
0.20
-0.04
-0.19
-0.19
-0.03
0.23
0.47
0.61
0.60
0.48
0.33
0.23
0.20
0.20
0.17
0.10
0.02
0.01
0.12
0.30
0.43
0.39
0.13
-0.30
-0.74
-1.06
-1.17
-1.08
-0.88
-0.66
-0.47
-0.32
-0.20
-0.10
-0.02
0.02
0.01
-0.02
-0.06
-0.10
-0.14
-0.16
-0.15
-0.11
-0.04
0.06
0.14
0.18
0.15
0.06
-0.06
-0.19
-0.31
-0.41
-0.47
-0.47
-0.38
-0.18
0.10
0.38
0.59
0.65
0.56
0.35
0.06
-0.25
-0.56
-0.79
-0.88
-0.76
-0.44
0.03
0.52
0.90
1.05
0.96
0.68
0.33
0.00
-0.21
-0.29
-0.23
-0.08
0.09
0.25
0.37
0.46
0.54
0.58
0.56
0.47
0.32
0.17
0.09
0.06
0.05
-0.05
-0.30
-0.66
-1.00
-1.15
-1.02
-0.63
-0.16
0.20
0.31
0.15
-0.14
-0.39
-0.47
-0.35
-0.12
0.10
0.23
0.25
0.24
0.25
0.29
0.29
0.18
-0.06
-0.35
-0.57
-0.59
-0.38
-0.02
0.34
0.53
0.50
0.30
0.04
-0.14
-0.21
-0.20
-0.22
-0.32
-0.49
-0.61
-0.58
-0.34
0.03
0.42
0.71
0.83
0.84
0.83
0.85
0.92
0.96
0.90
0.71
0.46
0.21
0.04
-0.08
-0.19
-0.35
-0.57
-0.79
-0.90
-0.82
-0.57
-0.22
0.07
0.17
0.03
-0.30
-0.72
-1.06
-1.22
-1.13
-0.82
-0.39
0.05
0.38
0.53
0.52
0.40
0.26
0.16
0.14
0.20
0.33
0.52
0.74
0.93
1.03
0.95
0.67
0.29
-0.07
-0.26
-0.19
0.05
0.33
0.47
0.41
0.16
-0.16
-0.47
-0.72
-0.89
-1.00
-1.07
-1.05
-0.94
-0.74
-0.49
-0.24
-0.03
0.12
0.22
0.25
0.21
0.10
-0.07
-0.26
-0.42
-0.50
-0.51
-0.49
-0.48
-0.50
-0.53
-0.55
-0.53
-0.48
-0.40
-0.31
-0.21
-0.08
0.10
0.32
0.56
0.78
0.94
1.01
0.98
0.87
0.71
0.58
0.55
0.63
0.79
0.92
0.88
0.60
0.13
-0.36
-0.66
-0.61
-0.21
0.39
0.95
1.24
1.16
0.74
0.14
-0.41
-0.75
-0.83
-0.72
-0.52
-0.35
-0.23
-0.13
0.01
0.20
0.39
0.48
0.42
0.19
-0.12
-0.41
-0.57
-0.56
-0.39
-0.13
0.11
0.23
0.19
0.02
-0.18
-0.32
-0.32
-0.22
-0.10
-0.05
-0.11
-0.23
-0.28
-0.20
0.02
0.32
0.56
0.67
0.59
0.38
0.09
-0.20
-0.45
-0.61
-0.66
-0.58
-0.39
-0.13
0.12
0.26
0.25
0.12
-0.06
-0.17
-0.14
0.03
0.27
0.49
0.60
0.58
0.47
0.32
0.22
0.19
0.25
0.39
0.53
0.62
0.59
0.42
0.14
-0.15
-0.35
-0.37
-0.21
0.06
0.32
0.46
0.44
0.29
0.08
-0.10
-0.18
-0.14
0.02
0.28
0.59
0.90
1.13
1.21
1.10
0.79
0.37
-0.08
-0.43
-0.65
-0.72
-0.70
-0.69
-0.75
-0.89
-1.08
-1.22
-1.24
-1.13
-0.90
-0.64
-0.42
-0.29
-0.22
-0.19
-0.15
-0.09
-0.03
0.01
-0.00
-0.06
-0.14
-0.21
-0.23
-0.12
0.14
0.51
0.89
1.12
1.07
0.74
0.25
-0.22
-0.47
-0.41
-0.12
0.24
0.51
0.58
0.45
0.21
-0.02
-0.18
-0.26
-0.31
-0.37
-0.44
-0.49
-0.45
-0.28
-0.00
0.30
0.51
0.55
0.40
0.13
-0.14
-0.33
-0.38
-0.31
-0.19
-0.09
-0.09
-0.21
-0.42
-0.66
-0.81
-0.80
-0.62
-0.29
0.09
0.44
0.65
0.70
0.58
0.33
0.01
-0.33
-0.60
-0.77
-0.80
-0.73
-0.59
-0.44
-0.32
-0.21
-0.09
0.07
0.28
0.51
0.66
0.65
0.44
0.06
-0.37
-0.69
-0.79
-0.61
-0.24
0.16
0.43
0.50
0.39
0.20
0.05
-0.00
0.03
0.09
0.14
0.17
0.21
0.25
0.27
0.21
0.03
-0.22
-0.43
-0.48
-0.32
-0.01
0.29
0.44
0.38
0.14
-0.17
-0.42
-0.55
-0.55
-0.44
-0.26
-0.05
0.19
0.41
0.59
0.66
0.63
0.49
0.28
0.05
-0.12
-0.20
-0.15
0.02
0.28
0.56
0.78
0.91
0.95
0.92
0.86
0.80
0.73
0.63
0.47
0.24
-0.05
-0.38
-0.72
-1.05
-1.32
-1.49
-1.53
-1.45
-1.27
-1.05
-0.84
-0.69
-0.60
-0.52
-0.41
-0.22
0.06
0.41
0.72
0.87
0.77
0.42
-0.09
-0.57
-0.86
-0.86
-0.63
-0.34
-0.15
-0.14
-0.31
-0.53
-0.67
-0.64
-0.44
-0.11
0.30
0.75
1.21
1.66
2.06
2.35
2.50
2.48
2.30
1.98
1.57
1.13
0.74
0.47
0.39
0.48
0.64
0.73
0.63
0.31
-0.16
-0.60
-0.84
-0.83
-0.62
-0.37
-0.23
-0.28
-0.44
-0.63
-0.73
-0.73
-0.67
-0.57
-0.47
-0.36
-0.26
-0.19
-0.21
-0.34
-0.55
-0.74
-0.80
-0.68
-0.39
-0.03
0.26
0.42
0.42
0.31
0.17
0.05
-0.01
-0.01
0.05
0.11
0.14
0.11
-0.02
-0.21
-0.42
-0.59
-0.66
-0.62
-0.53
-0.44
-0.41
-0.47
-0.57
-0.66
-0.66
-0.55
-0.37
-0.18
-0.07
-0.05
-0.11
-0.18
-0.20
-0.16
-0.07
0.03
0.12
0.22
0.34
0.52
0.73
0.90
0.95
0.87
0.73
0.60
0.55
0.60
0.65
0.59
0.36
-0.05
-0.52
-0.91
-1.09
-1.00
-0.71
-0.35
-0.04
0.15
0.22
0.25
0.31
0.44
0.58
0.67
0.62
0.44
0.19
-0.04
-0.20
-0.30
-0.39
-0.51
-0.63
-0.68
-0.61
-0.39
-0.11
0.16
0.31
0.32
0.23
0.12
0.06
0.08
0.11
0.08
-0.08
-0.38
-0.74
-1.01
-1.06
-0.82
-0.35
0.19
0.61
0.78
0.72
0.55
0.41
0.38
0.46
0.53
0.49
0.32
0.05
-0.23
-0.43
-0.50
-0.45
-0.29
-0.07
0.15
0.30
0.34
0.26
0.10
-0.05
-0.13
-0.08
0.06
0.24
0.38
0.41
0.35
0.20
0.01
-0.21
-0.45
-0.67
-0.85
-0.94
-0.90
-0.73
-0.45
-0.13
0.19
0.43
0.57
0.60
0.57
0.51
0.48
0.47
0.46
0.37
0.20
-0.02
-0.20
-0.23
-0.12
0.08
0.24
0.27
0.18
0.07
0.06
0.23
0.52
0.79
0.89
0.77
0.48
0.17
0.01
0.08
0.39
0.83
1.22
1.42
1.35
1.06
0.68
0.40
0.32
0.45
0.66
0.82
0.82
0.69
0.54
0.50
0.62
0.81
0.95
0.93
0.82
0.76
0.94
1.41
2.03
2.57
2.80
2.67
2.31
1.95
1.79
1.91
2.22
2.58
2.88
3.11
3.37
3.77
4.36
5.11
5.90
6.59
7.07
7.32
7.40
7.46
7.67
8.13
8.81
9.53
9.94
9.70
8.54
6.40
3.48
0.11
-3.37
-6.76
-10.06
-13.36
-16.67
-19.84
-22.49
-24.16
-24.37
-22.68
-18.78
-12.51
-4.03
6.12
16.95
27.28
36.02
42.53
46.79
49.25
50.55
51.21
51.40
51.04
49.99
48.20
45.75
42.85
39.66
36.23
32.42
27.89
22.26
15.29
7.05
-1.96
-10.91
-18.81
-24.94
-28.99
-31.16
-32.00
-32.09
-31.85
-31.47
-30.93
-30.21
-29.36
-28.50
-27.79
-27.27
-26.84
-26.31
-25.47
-24.20
-22.57
-20.82
-19.27
-18.16
-17.59
-17.45
-17.49
-17.38
-16.88
-15.91
-14.56
-13.04
-11.60
-10.44
-9.62
-9.08
-8.66
-8.20
-7.61
-6.93
-6.27
-5.77
-5.46
-5.28
-5.07
-4.67
-4.05
-3.29
-2.54
-1.96
-1.60
-1.41
-1.31
-1.26
-1.27
-1.37
-1.60
-1.88
-2.12
-2.20
-2.06
-1.78
-1.47
-1.26
-1.22
-1.36
-1.64
-2.00
-2.37
-2.66
-2.74
-2.53
-2.04
-1.36
-0.72
-0.33
-0.27
-0.51
-0.89
-1.26
-1.54
-1.76
-2.02
-2.35
-2.75
-3.15
-3.47
-3.70
-3.88
-4.08
-4.36
-4.73
-5.20
-5.70
-6.16
-6.51
-6.68
-6.69
-6.62
-6.62
-6.82
-7.29
-8.02
-8.90
-9.77
-10.49
-10.89
-10.82
-10.19
-8.95
-7.18
-5.05
-2.76
-0.49
1.73
3.94
6.17
8.38
10.37
11.86
12.64
12.67
12.09
11.18
10.25
9.46
8.86
8.41
8.04
7.70
7.40
7.09
6.70
6.17
5.44
4.52
3.53
2.63
1.96
1.60
1.55
1.72
1.97
2.21
2.35
2.39
2.33
2.18
1.92
1.51
0.95
0.29
-0.36
-0.89
-1.27
-1.47
-1.55
-1.51
-1.30
-0.81
0.03
1.25
2.74
4.31
5.72
6.77
7.33
7.40
7.05
6.43
5.73
5.10
4.61
4.26
3.99
3.71
3.41
3.10
2.81
2.57
2.35
2.09
1.76
1.38
1.04
0.84
0.87
1.11
1.45
1.76
1.89
1.80
1.53
1.18
0.87
0.69
0.66
0.74
0.84
0.87
0.77
0.53
0.19
-0.17
-0.49
-0.74
-0.92
-1.08
-1.25
-1.44
-1.61
-1.75
-1.83
-1.88
-1.95
-2.06
-2.22
-2.39
-2.55
-2.66
-2.72
-2.75
-2.78
-2.80
-2.76
-2.61
-2.31
-1.87
-1.39
-0.99
-0.75
-0.73
-0.87
-1.04
-1.12
-1.04
-0.79
-0.48
-0.22
-0.09
-0.09
-0.17
-0.27
-0.35
-0.41
-0.46
-0.50
-0.49
-0.40
-0.21
0.07
0.39
0.69
0.93
1.09
1.18
1.21
1.19
1.17
1.17
1.21
1.27
1.33
1.33
1.26
1.13
0.99
0.91
0.89
0.92
0.92
0.84
0.66
0.40
0.11
-0.15
-0.34
-0.47
-0.53
-0.50
-0.35
-0.08
0.31
0.72
0.99
0.96
0.56
-0.12
-0.88
-1.48
-1.76
-1.70
-1.45
-1.18
-1.02
-0.99
-1.02
-1.01
-0.96
-0.93
-1.01
-1.24
-1.54
-1.77
-1.82
-1.65
-1.34
-1.02
-0.78
-0.60
-0.43
-0.20
0.12
0.48
0.79
1.03
1.19
1.33
1.49
1.65
1.80
1.87
1.86
1.78
1.64
1.48
1.35
1.25
1.22
1.25
1.30
1.31
1.21
0.98
0.63
0.20
-0.20
-0.51
-0.65
-0.61
-0.40
-0.06
0.33
0.66
0.88
0.94
0.86
0.69
0.46
0.20
-0.09
-0.38
-0.62
-0.71
-0.60
-0.32
0.02
0.25
0.21
-0.12
-0.66
-1.24
-1.66
-1.82
-1.72
-1.48
-1.22
-1.07
-1.06
-1.16
-1.31
-1.43
-1.49
-1.47
-1.38
-1.24
-1.08
-0.95
-0.86
-0.84
-0.86
-0.88
-0.81
-0.62
-0.30
0.04
0.28
0.31
0.10
-0.27
-0.67
-0.97
-1.12
-1.15
-1.10
-1.00
-0.85
-0.62
-0.31
0.03
0.34
0.51
0.50
0.34
0.12
-0.01
0.04
0.30
0.72
1.14
1.45
1.57
1.49
1.32
1.17
1.12
1.19
1.29
1.33
1.28
1.14
1.00
0.91
0.87
0.84
0.73
0.50
0.15
-0.22
-0.52
-0.69
-0.70
-0.57
-0.36
-0.09
0.18
0.40
0.52
0.50
0.35
0.11
-0.13
-0.33
-0.45
-0.50
-0.52
-0.56
-0.61
-0.68
-0.71
-0.69
-0.57
-0.37
-0.09
0.22
0.53
0.81
1.05
1.26
1.44
1.60
1.73
1.81
1.81
1.71
1.54
1.34
1.17
1.08
1.07
1.06
0.99
0.82
0.55
0.28
0.11
0.08
0.19
0.35
0.51
0.63
0.75
0.87
1.01
1.12
1.17
1.12
0.99
0.83
0.67
0.57
0.53
0.57
0.68
0.79
0.85
0.75
0.47
0.03
-0.45
-0.81
-0.94
-0.77
-0.40
0.01
0.31
0.36
0.17
-0.14
-0.44
-0.60
-0.57
-0.39
-0.15
0.06
0.17
0.16
0.01
-0.28
-0.66
-1.03
-1.30
-1.35
-1.19
-0.85
-0.43
-0.06
0.24
0.48
0.71
0.95
1.17
1.28
1.22
1.02
0.74
0.47
0.27
0.13
0.01
-0.10
-0.19
-0.22
-0.16
-0.03
0.12
0.21
0.20
0.08
-0.09
-0.27
-0.40
-0.48
-0.52
-0.53
-0.55
-0.57
-0.61
-0.64
-0.64
-0.57
-0.44
-0.31
-0.23
-0.26
-0.39
-0.57
-0.67
-0.64
-0.44
-0.15
0.15
0.36
0.44
0.41
0.32
0.21
0.12
0.08
0.11
0.21
0.36
0.52
0.62
0.61
0.45
0.19
-0.09
-0.33
-0.46
-0.46
-0.38
-0.24
-0.12
-0.06
-0.06
-0.11
-0.18
-0.22
-0.22
-0.21
-0.21
-0.27
-0.36
-0.45
-0.48
-0.44
-0.36
-0.31
-0.32
-0.38
-0.42
-0.39
-0.29
-0.17
-0.12
-0.15
-0.23
-0.24
-0.08
0.24
0.59
0.83
0.85
0.63
0.29
-0.04
-0.28
-0.39
-0.41
-0.39
-0.35
-0.28
-0.15
0.03
0.24
0.43
0.58
0.65
0.67
0.65
0.63
0.61
0.63
0.66
0.69
0.69
0.60
0.42
0.17
-0.10
-0.31
-0.40
-0.36
-0.20
0.01
0.22
0.37
0.40
0.29
0.00
-0.41
-0.84
-1.15
-1.19
-0.91
-0.35
0.30
0.83
1.06
0.94
0.53
-0.02
-0.53
-0.83
-0.88
-0.72
-0.42
-0.10
0.14
0.27
0.31
0.32
0.35
0.43
0.50
0.50
0.36
0.12
-0.14
-0.30
-0.33
-0.25
-0.20
-0.27
-0.49
-0.79
-0.97
-0.90
-0.56
-0.04
0.46
0.73
0.70
0.40
-0.06
-0.53
-0.87
-1.02
-0.99
-0.79
-0.51
-0.19
0.09
0.28
0.36
0.31
0.17
-0.03
-0.25
-0.45
-0.57
-0.59
-0.51
-0.39
-0.32
-0.39
-0.64
-0.99
-1.30
-1.44
-1.34
-1.10
-0.86
-0.77
-0.87
-1.09
-1.27
-1.28
-1.09
-0.77
-0.44
-0.21
-0.12
-0.10
-0.05
0.08
0.30
0.56
0.79
0.93
1.00
1.08
1.23
1.48
1.79
2.04
2.13
1.99
1.66
1.24
0.85
0.59
0.52
0.64
0.90
1.20
1.45
1.56
1.53
1.41
1.29
1.26
1.34
1.49
1.59
1.56
1.37
1.12
0.92
0.89
1.09
1.46
1.92
2.34
2.65
2.81
2.86
2.88
2.97
3.22
3.67
4.24
4.77
5.01
4.75
3.90
2.50
0.75
-1.09
-2.76
-4.09
-5.00
-5.51
-5.73
-5.75
-5.67
-5.54
-5.37
-5.14
-4.86
-4.57
-4.31
-4.12
-4.03
-3.97
-3.88
-3.68
-3.31
-2.76
-2.03
-1.19
-0.34
0.40
0.91
1.17
1.20
1.11
1.03
1.01
1.08
1.20
1.33
1.39
1.36
1.19
0.88
0.48
0.08
-0.24
-0.37
-0.31
-0.10
0.17
0.41
0.60
0.71
0.76
0.77
0.73
0.69
0.68
0.72
0.81
0.91
0.97
0.95
0.87
0.78
0.76
0.79
0.83
0.81
0.68
0.49
0.32
0.27
0.38
0.60
0.79
0.84
0.69
0.38
-0.00
-0.33
-0.54
-0.66
-0.73
-0.81
-0.89
-0.96
-0.95
-0.83
-0.64
-0.42
-0.23
-0.09
0.02
0.13
0.26
0.39
0.47
0.44
0.29
0.07
-0.15
-0.29
-0.36
-0.40
-0.49
-0.67
-0.90
-1.08
-1.10
-0.94
-0.65
-0.36
-0.19
-0.17
-0.27
-0.35
-0.33
-0.17
0.06
0.28
0.43
0.49
0.53
0.60
0.74
0.93
1.09
1.13
1.01
0.74
0.38
0.04
-0.21
-0.35
-0.37
-0.31
-0.21
-0.07
0.08
0.17
0.16
-0.02
-0.32
-0.64
-0.84
-0.82
-0.59
-0.26
0.02
0.13
0.09
-0.04
-0.16
-0.23
-0.25
-0.25
-0.22
-0.13
0.07
0.35
0.61
0.76
0.77
0.69
0.65
0.73
0.92
1.12
1.19
1.05
0.70
0.26
-0.14
-0.39
-0.44
-0.32
-0.10
0.15
0.34
0.42
0.37
0.23
0.07
-0.05
-0.09
-0.05
0.05
0.16
0.25
0.30
0.28
0.19
0.03
-0.15
-0.26
-0.21
0.03
0.42
0.84
1.13
1.20
1.04
0.77
0.52
0.40
0.41
0.46
0.42
0.17
-0.28
-0.83
-1.30
-1.52
-1.43
-1.09
-0.70
-0.45
-0.48
-0.76
-1.16
-1.51
-1.71
-1.75
-1.71
-1.68
-1.66
-1.62
-1.44
-1.08
-0.57
-0.03
0.41
0.64
0.66
0.56
0.47
0.48
0.56
0.62
0.53
0.23
-0.21
-0.64
-0.88
-0.81
-0.45
0.05
0.52
0.83
0.95
0.91
0.80
0.70
0.65
0.66
0.71
0.76
0.80
0.80
0.78
0.71
0.61
0.46
0.29
0.14
0.05
0.02
0.06
0.09
0.06
-0.08
-0.33
-0.66
-0.98
-1.25
-1.39
-1.37
-1.19
-0.88
-0.48
-0.08
0.25
0.42
0.39
0.18
-0.16
-0.51
-0.74
-0.77
-0.59
-0.26
0.12
0.45
0.64
0.68
0.56
0.32
-0.01
-0.35
-0.61
-0.68
-0.51
-0.11
0.40
0.87
1.17
1.23
1.10
0.86
0.61
0.38
0.21
0.11
0.06
0.08
0.15
0.23
0.27
0.23
0.11
-0.04
-0.16
-0.19
-0.16
-0.08
-0.03
-0.02
-0.04
-0.04
0.03
0.15
0.26
0.29
0.18
-0.03
-0.22
-0.30
-0.22
-0.02
0.20
0.32
0.31
0.20
0.06
-0.03
-0.05
-0.01
0.05
0.14
0.27
0.42
0.53
0.53
0.36
0.07
-0.22
-0.37
-0.30
-0.04
0.29
0.56
0.68
0.66
0.54
0.40
0.25
0.07
-0.15
-0.42
-0.70
-0.90
-0.93
-0.73
-0.30
0.26
0.75
0.97
0.76
0.17
-0.58
-1.18
-1.38
-1.11
-0.52
0.12
0.55
0.65
0.48
0.16
-0.17
-0.42
-0.59
-0.70
-0.75
-0.72
-0.57
-0.32
-0.03
0.23
0.39
0.45
0.45
0.47
0.54
0.67
0.79
0.78
0.58
0.22
-0.21
-0.55
-0.70
-0.65
-0.46
-0.25
-0.09
-0.00
0.04
0.10
0.17
0.21
0.20
0.14
0.07
0.01
-0.00
0.01
-0.01
-0.06
-0.14
-0.20
-0.20
-0.13
-0.03
0.05
0.05
-0.05
-0.21
-0.43
-0.66
-0.87
-1.03
-1.09
-1.01
-0.79
-0.46
-0.13
0.12
0.20
0.12
-0.04
-0.18
-0.23
-0.18
-0.08
0.02
0.07
0.07
0.05
0.02
-0.02
-0.07
-0.14
-0.20
-0.21
-0.13
0.03
0.24
0.42
0.52
0.55
0.51
0.45
0.37
0.27
0.14
-0.05
-0.29
-0.56
-0.80
-0.95
-0.95
-0.77
-0.47
-0.10
0.23
0.47
0.58
0.58
0.52
0.44
0.39
0.39
0.43
0.49
0.56
0.61
0.60
0.52
0.36
0.16
-0.06
-0.26
-0.38
-0.40
-0.32
-0.16
0.01
0.12
0.12
0.01
-0.18
-0.36
-0.47
-0.49
-0.45
-0.42
-0.47
-0.65
-0.93
-1.24
-1.48
-1.55
-1.41
-1.09
-0.67
-0.24
0.13
0.41
0.62
0.78
0.92
1.07
1.22
1.38
1.51
1.59
1.59
1.49
1.31
1.07
0.84
0.66
0.56
0.52
0.52
0.50
0.42
0.26
0.06
-0.14
-0.24
-0.20
0.01
0.33
0.66
0.87
0.91
0.76
0.47
0.11
-0.24
-0.54
-0.78
-0.92
-0.97
-0.94
-0.86
-0.75
-0.67
-0.64
-0.67
-0.73
-0.78
-0.76
-0.63
-0.39
-0.06
0.28
0.54
0.65
0.58
0.40
0.21
0.11
0.15
0.32
0.50
0.61
0.58
0.41
0.16
-0.09
-0.26
-0.32
-0.27
-0.16
-0.01
0.15
0.32
0.50
0.63
0.66
0.55
0.33
0.11
0.00
0.11
0.39
0.70
0.85
0.72
0.32
-0.21
-0.68
-0.92
-0.85
-0.52
-0.04
0.45
0.77
0.82
0.54
0.00
-0.65
-1.22
-1.53
-1.54
-1.29
-0.90
-0.50
-0.16
0.11
0.28
0.32
0.22
0.01
-0.23
-0.36
-0.26
0.10
0.62
1.07
1.26
1.11
0.67
0.15
-0.23
-0.32
-0.14
0.21
0.56
0.76
0.77
0.61
0.33
0.01
-0.30
-0.54
-0.68
-0.67
-0.51
-0.24
0.09
0.40
0.64
0.74
0.67
0.41
-0.01
-0.53
-1.01
-1.33
-1.38
-1.15
-0.73
-0.29
0.00
0.06
-0.08
-0.28
-0.41
-0.37
-0.19
0.03
0.17
0.17
0.09
0.00
0.01
0.12
0.29
0.42
0.47
0.43
0.36
0.31
0.30
0.31
0.33
0.37
0.44
0.58
0.76
0.92
0.96
0.84
0.57
0.23
-0.07
-0.26
-0.33
-0.32
-0.29
-0.27
-0.25
-0.22
-0.19
-0.19
-0.28
-0.52
-0.92
-1.40
-1.84
-2.11
-2.11
-1.82
-1.30
-0.65
-0.01
0.51
0.85
0.95
0.83
0.53
0.12
-0.31
-0.63
-0.75
-0.64
-0.37
-0.02
0.29
0.50
0.62
0.63
0.54
0.34
0.02
-0.34
-0.62
-0.70
-0.53
-0.19
0.15
0.34
0.29
0.04
-0.27
-0.54
-0.66
-0.65
-0.52
-0.34
-0.18
-0.09
-0.10
-0.20
-0.31
-0.32
-0.15
0.19
0.60
0.92
1.01
0.82
0.42
-0.05
-0.44
-0.68
-0.76
-0.71
-0.58
-0.41
-0.17
0.14
0.50
0.84
1.06
1.07
0.86
0.46
0.02
-0.33
-0.48
-0.39
-0.13
0.17
0.37
0.40
0.27
0.08
-0.06
-0.06
0.06
0.24
0.39
0.45
0.46
0.47
0.53
0.64
0.72
0.68
0.47
0.14
-0.22
-0.49
-0.59
-0.52
-0.37
-0.24
-0.19
-0.22
-0.27
-0.27
-0.18
-0.02
0.15
0.27
0.33
0.35
0.39
0.44
0.48
0.44
0.28
0.06
-0.14
-0.22
-0.14
0.07
0.33
0.52
0.59
0.50
0.30
0.02
-0.28
-0.55
-0.71
-0.71
-0.51
-0.14
0.25
0.51
0.52
0.31
-0.03
-0.33
-0.44
-0.35
-0.15
0.03
0.11
0.09
0.05
0.08
0.20
0.39
0.55
0.65
0.70
0.72
0.71
0.65
0.47
0.17
-0.20
-0.53
-0.68
-0.63
-0.43
-0.24
-0.19
-0.32
-0.58
-0.80
-0.86
-0.71
-0.42
-0.12
0.07
0.14
0.15
0.25
0.50
0.88
1.26
1.48
1.45
1.21
0.87
0.56
0.36
0.27
0.21
0.10
-0.07
-0.27
-0.44
-0.54
-0.55
-0.50
-0.41
-0.32
-0.21
-0.11
-0.04
-0.03
-0.09
-0.22
-0.35
-0.45
-0.46
-0.43
-0.42
-0.49
-0.65
-0.84
-0.96
-0.95
-0.79
-0.53
-0.29
-0.13
-0.09
-0.15
-0.24
-0.30
-0.28
-0.19
-0.03
0.14
0.31
0.44
0.53
0.57
0.59
0.58
0.54
0.48
0.37
0.22
0.05
-0.13
-0.27
-0.32
-0.30
-0.21
-0.12
-0.07
-0.08
-0.10
-0.07
0.09
0.39
0.73
0.99
1.04
0.83
0.42
-0.06
-0.46
-0.68
-0.72
-0.63
-0.46
-0.27
-0.07
0.16
0.36
0.45
0.36
0.06
-0.35
-0.72
-0.91
-0.83
-0.54
-0.18
0.11
0.24
0.20
0.09
0.02
0.10
0.36
0.73
1.08
1.22
1.06
0.62
0.03
-0.49
-0.76
-0.73
-0.50
-0.24
-0.07
-0.01
0.02
0.15
0.37
0.58
0.62
0.39
-0.02
-0.44
-0.62
-0.45
0.03
0.63
1.12
1.35
1.31
1.06
0.71
0.33
-0.04
-0.38
-0.68
-0.89
-0.99
-0.97
-0.85
-0.72
-0.65
-0.67
-0.79
-0.92
-0.99
-0.93
-0.75
-0.52
-0.31
-0.20
-0.19
-0.28
-0.44
-0.63
-0.80
-0.87
-0.80
-0.57
-0.24
0.10
0.36
0.49
0.50
0.47
0.46
0.53
0.68
0.87
1.08
1.23
1.26
1.12
0.81
0.39
-0.02
-0.28
-0.34
-0.22
-0.04
0.06
0.02
-0.13
-0.29
-0.34
-0.25
-0.04
0.17
0.30
0.34
0.32
0.27
0.21
0.08
-0.18
-0.58
-1.02
-1.35
-1.42
-1.18
-0.69
-0.15
0.26
0.40
0.27
-0.01
-0.30
-0.49
-0.52
-0.42
-0.22
0.03
0.30
0.55
0.74
0.83
0.78
0.59
0.32
0.08
-0.05
-0.04
0.06
0.14
0.11
-0.03
-0.24
-0.40
-0.41
-0.24
0.05
0.35
0.56
0.61
0.50
0.26
-0.06
-0.42
-0.73
-0.96
-1.06
-1.03
-0.92
-0.78
-0.66
-0.53
-0.39
-0.20
0.01
0.18
0.25
0.24
0.23
0.34
0.61
1.00
1.37
1.57
1.49
1.17
0.77
0.47
0.42
0.63
1.03
1.49
1.84
1.99
1.91
1.61
1.15
0.61
0.09
-0.29
-0.49
-0.49
-0.35
-0.18
-0.06
-0.04
-0.09
-0.18
-0.26
-0.28
-0.22
-0.09
0.09
0.31
0.52
0.68
0.76
0.73
0.60
0.39
0.12
-0.19
-0.53
-0.86
-1.10
-1.18
-1.08
-0.78
-0.37
0.05
0.37
0.53
0.54
0.45
0.33
0.22
0.10
-0.07
-0.32
-0.63
-0.95
-1.20
-1.32
-1.32
-1.22
-1.06
-0.88
-0.70
-0.50
-0.30
-0.13
-0.01
0.07
0.12
0.15
0.19
0.18
0.09
-0.12
-0.41
-0.72
-0.99
-1.16
-1.22
-1.18
-1.07
-0.90
-0.65
-0.36
-0.05
0.21
0.36
0.41
0.37
0.33
0.33
0.37
0.43
0.48
0.49
0.48
0.48
0.52
0.60
0.69
0.72
0.65
0.45
0.17
-0.13
-0.36
-0.46
-0.40
-0.19
0.10
0.36
0.51
0.49
0.32
0.09
-0.12
-0.23
-0.24
-0.22
-0.20
-0.20
-0.15
-0.03
0.17
0.38
0.51
0.50
0.38
0.22
0.11
0.07
0.09
0.08
0.02
-0.08
-0.17
-0.17
-0.08
0.08
0.25
0.39
0.48
0.50
0.46
0.34
0.15
-0.08
-0.30
-0.43
-0.40
-0.21
0.07
0.33
0.48
0.51
0.44
0.36
0.31
0.31
0.32
0.29
0.21
0.11
0.01
-0.09
-0.19
-0.29
-0.35
-0.36
-0.29
-0.22
-0.21
-0.31
-0.47
-0.57
-0.49
-0.20
0.24
0.64
0.86
0.84
0.60
0.29
-0.00
-0.19
-0.27
-0.26
-0.19
-0.09
0.03
0.13
0.20
0.25
0.31
0.41
0.55
0.69
0.78
0.78
0.69
0.50
0.27
0.01
-0.21
-0.37
-0.42
-0.37
-0.27
-0.17
-0.14
-0.19
-0.29
-0.36
-0.33
-0.18
0.03
0.20
0.21
0.04
-0.27
-0.57
-0.73
-0.67
-0.45
-0.18
-0.03
-0.06
-0.24
-0.46
-0.59
-0.58
-0.50
-0.44
-0.49
-0.63
-0.79
-0.82
-0.67
-0.37
-0.01
0.29
0.46
0.52
0.52
0.49
0.42
0.28
0.01
-0.39
-0.83
-1.19
-1.32
-1.15
-0.72
-0.15
0.36
0.68
0.71
0.53
0.24
-0.01
-0.13
-0.11
0.00
0.14
0.26
0.33
0.36
0.34
0.25
0.06
-0.19
-0.42
-0.55
-0.52
-0.37
-0.20
-0.10
-0.12
-0.19
-0.19
-0.05
0.24
0.58
0.84
0.91
0.78
0.48
0.12
-0.23
-0.48
-0.62
-0.68
-0.70
-0.75
-0.87
-1.08
-1.35
-1.60
-1.75
-1.77
-1.66
-1.44
-1.15
-0.85
-0.55
-0.26
-0.01
0.22
0.42
0.64
0.88
1.14
1.39
1.57
1.63
1.55
1.36
1.10
0.86
0.68
0.61
0.67
0.88
1.22
1.66
2.10
2.41
2.47
2.20
1.63
0.90
0.20
-0.33
-0.61
-0.68
-0.62
-0.55
-0.50
-0.48
-0.48
-0.49
-0.54
-0.68
-0.88
-1.07
-1.15
-1.01
-0.64
-0.11
0.41
0.74
0.79
0.58
0.24
-0.04
-0.12
0.03
0.31
0.57
0.70
0.64
0.45
0.21
0.02
-0.07
-0.09
-0.06
-0.05
-0.04
-0.02
0.02
0.05
0.03
-0.12
-0.40
-0.76
-1.10
-1.27
-1.19
-0.85
-0.36
0.09
0.34
0.32
0.05
-0.31
-0.59
-0.67
-0.56
-0.35
-0.18
-0.14
-0.20
-0.27
-0.22
0.01
0.37
0.72
0.90
0.85
0.60
0.29
0.05
-0.06
-0.04
-0.02
-0.07
-0.24
-0.48
-0.68
-0.72
-0.58
-0.31
-0.05
0.06
-0.02
-0.26
-0.53
-0.70
-0.69
-0.54
-0.30
-0.09
0.08
0.22
0.38
0.59
0.81
1.00
1.09
1.11
1.10
1.09
1.12
1.13
1.08
0.92
0.65
0.35
0.10
-0.03
-0.05
0.01
0.06
0.06
-0.03
-0.18
-0.33
-0.42
-0.42
-0.32
-0.11
0.18
0.51
0.79
0.92
0.85
0.56
0.11
-0.38
-0.76
-0.95
-0.93
-0.73
-0.41
-0.07
0.22
0.37
0.37
0.20
-0.07
-0.35
-0.54
-0.57
-0.43
-0.17
0.11
0.36
0.55
0.72
0.88
1.02
1.10
1.05
0.84
0.52
0.16
-0.12
-0.27
-0.31
-0.29
-0.25
-0.18
-0.06
0.11
0.28
0.36
0.27
-0.02
-0.40
-0.73
-0.85
-0.70
-0.34
0.08
0.40
0.52
0.42
0.17
-0.12
-0.35
-0.46
-0.43
-0.29
-0.11
0.01
0.02
-0.10
-0.31
-0.49
-0.56
-0.47
-0.27
-0.04
0.13
0.22
0.26
0.30
0.36
0.39
0.34
0.20
0.04
-0.04
0.05
0.29
0.54
0.67
0.56
0.27
-0.07
-0.29
-0.34
-0.27
-0.21
-0.27
-0.45
-0.65
-0.74
-0.63
-0.37
-0.07
0.11
0.12
0.01
-0.11
-0.13
-0.01
0.21
0.43
0.55
0.53
0.40
0.25
0.19
0.23
0.34
0.40
0.34
0.15
-0.07
-0.19
-0.13
0.10
0.37
0.55
0.54
0.36
0.08
-0.16
-0.30
-0.34
-0.31
-0.24
-0.16
-0.09
-0.02
0.02
0.01
-0.05
-0.15
-0.27
-0.42
-0.57
-0.73
-0.85
-0.91
-0.89
-0.81
-0.71
-0.63
-0.59
-0.54
-0.44
-0.28
-0.11
0.01
-0.03
-0.22
-0.51
-0.76
-0.83
-0.66
-0.29
0.16
0.54
0.73
0.70
0.48
0.16
-0.18
-0.47
-0.66
-0.70
-0.60
-0.36
-0.06
0.17
0.25
0.13
-0.11
-0.33
-0.43
-0.34
-0.09
0.24
0.56
0.78
0.87
0.87
0.78
0.64
0.47
0.26
0.03
-0.18
-0.33
-0.35
-0.21
0.05
0.35
0.56
0.61
0.46
0.17
-0.20
-0.60
-0.99
-1.34
-1.58
-1.62
-1.43
-1.05
-0.62
-0.29
-0.16
-0.21
-0.37
-0.54
-0.66
-0.71
-0.67
-0.52
-0.26
0.09
0.44
0.68
0.72
0.56
0.29
0.04
-0.08
-0.03
0.15
0.40
0.67
0.92
1.13
1.20
1.05
0.61
-0.06
-0.84
-1.51
-1.91
-1.97
-1.79
-1.58
-1.54
-1.80
-2.33
-3.00
-3.62
-4.06
-4.33
-4.60
-5.05
-5.85
-6.94
-8.13
-9.10
-9.66
-9.83
-9.90
-10.26
-11.25
-12.91
-14.99
-17.07
-18.72
-19.76
-20.32
-20.80
-21.68
-23.35
-25.87
-28.99
-32.18
-34.97
-37.11
-38.70
-40.17
-41.97
-44.45
-47.84
-52.30
-57.79
-63.73
-68.69
-70.45
-66.69
-56.05
-39.10
-18.44
2.18
19.34
31.16
37.74
40.47
40.93
40.00
37.78
34.16
29.64
25.61
23.84
25.61
30.89
38.22
45.28
49.83
50.74
48.37
44.18
39.96
36.91
35.23
34.26
33.07
31.03
28.18
25.03
22.24
20.22
18.95
18.07
17.12
15.80
14.06
12.14
10.37
9.02
8.12
7.51
6.92
6.12
5.07
3.90
2.86
2.21
2.06
2.35
2.88
3.42
3.75
3.77
3.46
2.90
2.18
1.44
0.78
0.29
0.02
-0.10
-0.19
-0.41
-0.93
-1.78
-2.88
-4.00
-4.90
-5.37
-5.41
-5.17
-4.92
-4.92
-5.27
-5.90
-6.65
-7.31
-7.81
-8.19
-8.59
-9.14
-9.90
-10.84
-11.87
-12.95
-14.10
-15.36
-16.65
-17.74
-18.18
-17.51
-15.43
-11.98
-7.53
-2.66
2.14
6.59
10.78
14.95
19.28
23.77
28.12
31.92
34.79
36.49
36.95
36.11
33.89
30.16
24.93
18.49
11.53
5.00
-0.22
-3.55
-4.99
-5.02
-4.33
-3.52
-2.89
-2.46
-2.10
-1.74
-1.43
-1.31
-1.51
-2.01
-2.65
-3.18
-3.41
-3.29
-2.91
-2.44
-2.04
-1.79
-1.66
-1.58
-1.47
-1.28
-1.03
-0.77
-0.55
-0.41
-0.36
-0.36
-0.30
-0.07
0.39
1.03
1.68
2.12
2.19
1.85
1.26
0.64
0.17
-0.08
-0.17
-0.22
-0.31
-0.46
-0.63
-0.74
-0.79
-0.80
-0.81
-0.85
-0.90
-0.99
-1.10
-1.28
-1.51
-1.76
-1.95
-1.99
-1.84
-1.51
-1.10
-0.70
-0.39
-0.18
-0.08
-0.03
0.02
0.10
0.28
0.56
0.96
1.44
1.96
2.43
2.84
3.17
3.44
3.71
4.03
4.41
4.85
5.31
5.71
5.99
6.05
5.87
5.48
5.01
4.59
4.39
4.48
4.82
5.29
5.67
5.70
5.13
3.80
1.72
-0.92
-3.72
-6.23
-8.06
-9.05
-9.29
-9.06
-8.71
-8.48
-8.44
-8.53
-8.64
-8.74
-8.81
-8.89
-8.93
-8.86
-8.56
-7.97
-7.14
-6.15
-5.10
-4.04
-2.93
-1.72
-0.41
0.93
2.12
3.01
3.51
3.61
3.39
2.96
2.41
1.79
1.19
0.66
0.29
0.14
0.19
0.35
0.47
0.44
0.16
-0.33
-0.96
-1.60
-2.16
-2.60
-2.96
-3.30
-3.67
-4.06
-4.40
-4.62
-4.71
-4.79
-5.01
-5.49
-6.24
-7.18
-8.14
-8.99
-9.66
-10.13
-10.34
-10.20
-9.62
-8.53
-6.99
-5.14
-3.14
-1.13
0.83
2.73
4.53
6.16
7.49
8.43
8.93
9.03
8.86
8.55
8.24
7.99
7.81
7.59
7.20
6.51
5.47
4.15
2.74
1.45
0.50
0.04
0.10
0.61
1.45
2.50
3.69
4.94
6.17
7.26
8.10
8.59
8.70
8.49
8.09
7.61
7.12
6.61
6.06
5.47
4.86
4.29
3.81
3.39
2.97
2.49
1.94
1.33
0.73
0.16
-0.39
-0.91
-1.39
-1.76
-1.92
-1.81
-1.44
-0.91
-0.32
0.22
0.70
1.16
1.65
2.21
2.82
3.43
3.93
4.27
4.41
4.36
4.17
3.88
3.51
3.05
2.49
1.80
1.03
0.23
-0.50
-1.06
-1.43
-1.68
-1.93
-2.30
-2.88
-3.67
-4.61
-5.62
-6.66
-7.65
-8.57
-9.31
-9.80
-9.98
-9.90
-9.65
-9.40
-9.25
-9.23
-9.29
-9.32
-9.23
-8.92
-8.37
-7.58
-6.58
-5.41
-4.13
-2.73
-1.24
0.33
1.93
3.50
4.96
6.28
7.47
8.54
9.48
10.17
10.49
10.30
9.64
8.66
7.58
6.63
5.89
5.31
4.78
4.20
3.53
2.84
2.18
1.65
1.26
0.99
0.78
0.58
0.34
0.04
-0.30
-0.64
-0.97
-1.31
-1.74
-2.38
-3.33
-4.60
-6.10
-7.64
-8.95
-9.79
-9.95
-9.38
-8.13
-6.41
-4.46
-2.51
-0.74
0.80
2.13
3.26
4.19
4.88
5.26
5.29
4.98
4.43
3.76
3.10
2.56
2.20
2.04
2.07
2.20
2.35
2.43
2.37
2.17
1.86
1.52
1.22
0.99
0.84
0.75
0.71
0.72
0.80
0.93
1.07
1.16
1.15
1.06
0.89
0.69
0.53
0.43
0.41
0.47
0.60
0.74
0.83
0.77
0.55
0.20
-0.17
-0.45
-0.56
-0.52
-0.40
-0.32
-0.36
-0.56
-0.88
-1.24
-1.55
-1.75
-1.77
-1.60
-1.29
-0.91
-0.56
-0.30
-0.13
-0.01
0.14
0.32
0.54
0.73
0.87
0.94
0.99
1.05
1.12
1.18
1.17
1.10
1.02
1.01
1.12
1.30
1.48
1.53
1.44
1.26
1.09
1.03
1.09
1.22
1.34
1.41
1.43
1.45
1.51
1.61
1.71
1.78
1.76
1.63
1.38
1.06
0.72
0.43
0.28
0.31
0.48
0.74
1.02
1.28
1.50
1.70
1.88
2.02
2.10
2.13
2.18
2.31
2.61
3.06
3.60
4.10
4.43
4.48
4.21
3.61
2.72
1.60
0.34
-0.91
-1.99
-2.76
-3.11
-3.05
-2.65
-2.00
-1.23
-0.42
0.37
1.10
1.69
2.06
2.11
1.79
1.15
0.27
-0.73
-1.75
-2.76
-3.79
-4.84
-5.88
-6.83
-7.58
-8.05
-8.23
-8.19
-8.04
-7.88
-7.77
-7.72
-7.67
-7.55
-7.29
-6.85
-6.28
-5.72
-5.36
-5.32
-5.56
-5.90
-6.07
-5.85
-5.12
-3.95
-2.50
-0.95
0.57
1.95
3.15
4.06
4.64
4.85
4.75
4.47
4.17
3.97
3.92
3.99
4.14
4.28
4.35
4.26
3.99
3.54
3.00
2.47
2.01
1.65
1.32
0.93
0.46
-0.05
-0.44
-0.59
-0.45
-0.13
0.18
0.29
0.18
-0.08
-0.29
-0.32
-0.18
-0.01
0.03
-0.10
-0.30
-0.32
0.08
0.99
2.27
3.61
4.70
5.31
5.45
5.29
5.11
5.11
5.41
5.93
6.55
7.09
7.49
7.74
7.94
8.18
8.52
9.00
9.59
10.27
11.00
11.76
12.53
13.31
14.14
15.07
16.16
17.47
18.96
20.55
22.10
23.46
24.54
25.28
25.74
26.07
26.53
27.34
28.68
30.46
32.32
33.62
33.63
31.86
28.21
23.08
17.23
11.45
6.37
2.19
-1.23
-4.36
-7.70
-11.72
-16.62
-22.32
-28.41
-34.21
-38.92
-41.79
-42.41
-40.68
-36.91
-31.59
-25.27
-18.33
-10.87
-2.73
6.35
16.44
27.23
37.89
47.35
54.76
59.88
63.30
66.21
69.77
74.60
80.61
87.25
94.03
100.68
106.87
111.47
112.32
106.38
90.73
63.68
25.33
-22.82
-79.06
-142.13
-210.91
-282.84
-352.64
-412.27
-452.85
-467.99
-456.42
-422.49
-374.22
-319.73
-264.22
-208.92
-152.42
-93.40
-32.93
25.00
74.92
112.28
135.45
146.25
148.82
147.60
145.60
143.42
140.02
134.05
125.20
114.68
104.64
97.00
92.37
89.78
87.30
83.12
76.45
67.90
59.04
51.55
46.41
43.56
42.04
40.56
38.21
34.77
30.68
26.77
23.67
21.62
20.39
19.44
18.22
16.44
14.10
11.49
9.02
6.99
5.54
4.59
3.91
3.25
2.47
1.58
0.71
0.01
-0.43
-0.60
-0.61
-0.56
-0.51
-0.47
-0.39
-0.20
0.11
0.50
0.90
1.22
1.40
1.41
1.29
1.09
0.88
0.68
0.48
0.21
-0.19
-0.72
-1.30
-1.78
-2.05
-2.06
-1.87
-1.62
-1.43
-1.38
-1.45
-1.59
-1.72
-1.80
-1.79
-1.69
-1.49
-1.20
-0.88
-0.61
-0.52
-0.68
-1.07
-1.58
-2.04
-2.32
-2.36
-2.18
-1.83
-1.35
-0.73
0.08
1.07
2.20
3.35
4.36
5.11
5.56
5.71
5.62
5.38
5.09
4.79
4.54
4.33
4.15
3.99
3.81
3.56
3.14
2.45
1.42
0.10
-1.36
-2.66
-3.55
-3.84
-3.59
-3.02
-2.41
-2.00
-1.84
-1.85
-1.88
-1.79
-1.54
-1.20
-0.88
-0.67
-0.63
-0.77
-0.99
-1.19
-1.24
-1.05
-0.65
-0.15
0.28
0.51
0.50
0.33
0.17
0.13
0.26
0.49
0.71
0.83
0.87
0.87
0.93
1.13
1.49
2.01
2.62
3.25
3.81
4.23
4.49
4.62
4.67
4.70
4.76
4.88
5.07
5.31
5.56
5.72
5.71
5.41
4.79
3.87
2.72
1.44
0.16
-1.07
-2.20
-3.28
-4.31
-5.29
-6.16
-6.83
-7.24
-7.40
-7.47
-7.70
-8.31
-9.43
-11.00
-12.80
-14.53
-15.93
-16.86
-17.29
-17.27
-16.82
-15.97
-14.73
-13.11
-11.21
-9.11
-6.87
-4.53
-2.04
0.65
3.50
6.39
9.09
11.36
13.02
14.04
14.52
14.66
14.61
14.46
14.22
13.87
13.40
12.87
12.35
11.89
11.53
11.26
11.08
10.97
10.89
10.74
10.37
9.63
8.41
6.75
4.85
2.96
1.34
0.11
-0.76
-1.39
-1.94
-2.47
-2.98
-3.40
-3.69
-3.86
-4.01
-4.20
-4.46
-4.73
-4.91
-4.92
-4.73
-4.38
-3.92
-3.43
-2.91
-2.39
-1.90
-1.49
-1.24
-1.14
-1.13
-1.10
-0.98
-0.75
-0.50
-0.34
-0.34
-0.50
-0.74
-0.96
-1.09
-1.11
-1.03
-0.87
-0.60
-0.16
0.45
1.17
1.83
2.27
2.40
2.27
2.03
1.82
1.71
1.60
1.31
0.70
-0.23
-1.30
-2.24
-2.81
-2.91
-2.66
-2.26
-1.89
-1.62
-1.39
-1.08
-0.62
-0.04
0.53
0.92
1.05
0.91
0.58
0.22
-0.03
-0.08
0.12
0.54
1.13
1.77
2.29
2.56
2.50
2.19
1.81
1.62
1.80
2.41
3.35
4.41
5.38
6.15
6.71
7.15
7.59
8.15
8.91
9.91
11.07
12.13
12.66
12.13
10.12
6.46
1.37
-4.58
-10.65
-16.11
-20.44
-23.43
-25.11
-25.77
-25.75
-25.39
-24.96
-24.56
-24.12
-23.47
-22.44
-20.93
-19.01
-16.86
-14.70
-12.72
-11.01
-9.59
-8.44
-7.58
-7.10
-7.08
-7.58
-8.57
-9.95
-11.59
-13.36
-15.09
-16.52
-17.24
-16.76
-14.65
-10.75
-5.33
0.93
7.14
12.50
16.52
19.17
20.72
21.57
22.05
22.31
22.36
22.12
21.57
20.77
19.85
18.86
17.85
16.75
15.48
14.05
12.54
11.12
9.96
9.14
8.58
8.12
7.57
6.82
5.92
5.01
4.26
3.75
3.46
3.28
3.10
2.82
2.45
2.07
1.79
1.68
1.76
2.00
2.30
2.61
2.84
2.94
2.87
2.64
2.31
1.97
1.74
1.67
1.73
1.77
1.67
1.34
0.86
0.36
-0.05
-0.37
-0.70
-1.20
-1.90
-2.68
-3.28
-3.47
-3.21
-2.66
-2.10
-1.76
-1.69
-1.83
-2.04
-2.23
-2.42
-2.67
-2.99
-3.31
-3.51
-3.53
-3.36
-3.07
-2.71
-2.28
-1.74
-1.02
-0.14
0.76
1.51
1.94
1.95
1.59
1.00
0.36
-0.18
-0.56
-0.78
-0.86
-0.85
-0.83
-0.84
-0.96
-1.25
-1.71
-2.28
-2.84
-3.24
-3.41
-3.32
-3.04
-2.66
-2.27
-1.91
-1.57
-1.22
-0.86
-0.50
-0.20
-0.01
0.03
-0.08
-0.33
-0.65
-0.98
-1.26
-1.41
-1.37
-1.10
-0.62
0.02
0.68
1.22
1.53
1.57
1.38
1.08
0.76
0.51
0.36
0.26
0.17
0.06
-0.11
-0.31
-0.50
-0.62
-0.64
-0.55
-0.39
-0.20
-0.02
0.13
0.23
0.29
0.35
0.41
0.52
0.66
0.79
0.85
0.80
0.62
0.36
0.07
-0.16
-0.31
-0.39
-0.45
-0.53
-0.64
-0.75
-0.81
-0.81
-0.74
-0.64
-0.52
-0.42
-0.36
-0.31
-0.28
-0.27
-0.28
-0.31
-0.37
-0.45
-0.50
-0.49
-0.38
-0.17
0.10
0.35
0.53
0.59
0.53
0.41
0.27
0.19
0.19
0.30
0.49
0.73
0.96
1.15
1.27
1.35
1.41
1.48
1.59
1.74
1.89
2.01
2.07
2.01
1.81
1.45
0.98
0.44
-0.04
-0.34
-0.40
-0.21
0.13
0.46
0.64
0.59
0.33
-0.05
-0.42
-0.63
-0.64
-0.42
-0.05
0.37
0.73
0.93
0.90
0.69
0.38
0.12
0.05
0.26
0.73
1.39
2.07
2.58
2.79
2.62
2.08
1.24
0.24
-0.74
-1.54
-1.94
-1.82
-1.14
0.00
1.38
2.72
3.76
4.37
4.58
4.55
4.50
4.62
4.96
5.49
6.07
6.56
6.88
7.07
7.26
7.62
8.26
9.18
10.28
11.40
12.35
12.94
12.92
12.05
10.13
7.13
3.29
-0.84
-4.61
-7.44
-9.03
-9.44
-9.00
-8.11
-7.05
-5.93
-4.75
-3.48
-2.23
-1.13
-0.36
-0.01
-0.10
-0.59
-1.43
-2.66
-4.29
-6.27
-8.41
-10.43
-11.99
-12.85
-12.96
-12.45
-11.57
-10.61
-9.76
-9.12
-8.68
-8.37
-8.09
-7.72
-7.18
-6.41
-5.43
-4.34
-3.27
-2.37
-1.74
-1.37
-1.19
-1.08
-0.97
-0.84
-0.72
-0.66
-0.64
-0.61
-0.51
-0.30
-0.02
0.24
0.39
0.39
0.29
0.22
0.26
0.43
0.61
0.67
0.49
0.06
-0.51
-1.04
-1.37
-1.39
-1.11
-0.62
-0.02
0.53
0.94
1.14
1.14
0.99
0.81
0.66
0.58
0.55
0.53
0.49
0.46
0.48
0.56
0.67
0.72
0.61
0.30
-0.18
-0.73
-1.23
-1.62
-1.86
-1.96
-1.99
-1.99
-2.03
-2.17
-2.44
-2.87
-3.43
-4.06
-4.66
-5.17
-5.52
-5.70
-5.75
-5.71
-5.68
-5.73
-5.86
-6.07
-6.25
-6.33
-6.25
-6.03
-5.74
-5.50
-5.35
-5.27
-5.19
-4.97
-4.54
-3.88
-3.05
-2.15
-1.31
-0.60
-0.12
0.16
0.32
0.59
1.18
2.25
3.75
5.40
6.83
7.70
7.91
7.60
7.11
6.73
6.62
6.74
6.88
6.84
6.54
6.02
5.41
4.86
4.45
4.18
4.03
4.02
4.19
4.62
5.31
6.19
7.08
7.82
8.31
8.58
8.72
8.83
8.92
8.94
8.83
8.57
8.22
7.88
7.59
7.32
6.97
6.48
5.86
5.15
4.46
3.83
3.29
2.79
2.31
1.87
1.51
1.26
1.14
1.11
1.09
0.97
0.66
0.10
-0.75
-1.84
-3.09
-4.35
-5.47
-6.30
-6.78
-6.92
-6.85
-6.71
-6.63
-6.65
-6.71
-6.69
-6.45
-5.92
-5.14
-4.24
-3.39
-2.72
-2.29
-2.06
-1.95
-1.85
-1.68
-1.37
-0.91
-0.31
0.37
1.02
1.53
1.77
1.68
1.26
0.58
-0.26
-1.09
-1.80
-2.30
-2.53
-2.50
-2.26
-1.86
-1.35
-0.77
-0.16
0.42
0.89
1.25
1.60
2.17
3.20
4.86
7.08
9.58
11.96
13.91
15.35
16.44
17.56
19.05
21.13
23.74
26.66
29.62
32.35
34.74
36.82
38.76
40.79
43.15
46.00
49.37
53.17
57.22
61.34
65.38
69.28
73.04
76.71
80.36
84.07
87.82
91.35
93.98
94.51
91.44
83.45
70.01
51.74
30.47
8.65
-11.28
-27.56
-39.29
-46.43
-49.47
-49.23
-46.71
-43.00
-39.13
-35.98
-34.01
-33.34
-33.79
-35.18
-37.47
-40.78
-45.32
-51.18
-58.19
-65.86
-73.40
-79.87
-84.36
-86.18
-85.05
-81.15
-75.07
-67.66
-59.84
-52.40
-45.90
-40.62
-36.56
-33.51
-31.13
-29.10
-27.15
-25.17
-23.20
-21.34
-19.71
-18.31
-17.08
-15.86
-14.48
-12.90
-11.14
-9.34
-7.62
-6.08
-4.70
-3.49
-2.45
-1.61
-1.02
-0.67
-0.50
-0.36
-0.16
0.17
0.58
1.00
1.37
1.63
1.78
1.81
1.70
1.49
1.26
1.06
0.96
0.96
1.06
1.22
1.43
1.67
1.91
2.03
1.93
1.52
0.82
-0.01
-0.79
-1.32
-1.48
-1.27
-0.80
-0.23
0.24
0.42
0.21
-0.37
-1.17
-1.95
-2.52
-2.83
-2.93
-2.92
-2.94
-3.05
-3.26
-3.55
-3.87
-4.18
-4.43
-4.54
-4.50
-4.36
-4.20
-4.12
-4.13
-4.16
-4.11
-3.89
-3.53
-3.12
-2.76
-2.54
-2.51
-2.63
-2.90
-3.25
-3.65
-4.03
-4.30
-4.42
-4.37
-4.17
-3.91
-3.69
-3.62
-3.77
-4.11
-4.53
-4.82
-4.75
-4.18
-3.09
-1.64
-0.05
1.49
2.91
4.29
5.72
7.23
8.69
9.88
10.63
10.85
10.64
10.17
9.63
9.07
8.49
7.84
7.08
6.30
5.62
5.13
4.86
4.71
4.60
4.45
4.30
4.21
4.22
4.29
4.27
3.98
3.34
2.40
1.34
0.40
-0.27
-0.65
-0.86
-1.07
-1.37
-1.72
-2.02
-2.12
-1.98
-1.67
-1.31
-1.04
-0.90
-0.83
-0.72
-0.48
-0.08
0.37
0.72
0.84
0.68
0.30
-0.14
-0.48
-0.66
-0.70
-0.72
-0.81
-1.03
-1.29
-1.48
-1.52
-1.39
-1.18
-1.03
-1.04
-1.22
-1.51
-1.76
-1.85
-1.69
-1.32
-0.83
-0.36
-0.04
0.06
-0.10
-0.46
-0.93
-1.43
-1.84
-2.13
-2.32
-2.46
-2.66
-2.97
-3.39
-3.83
-4.18
-4.34
-4.30
-4.12
-3.93
-3.81
-3.78
-3.80
-3.81
-3.75
-3.60
-3.35
-2.97
-2.44
-1.77
-0.95
-0.04
0.91
1.86
2.77
3.59
4.27
4.73
4.91
4.83
4.52
4.11
3.71
3.38
3.13
2.94
2.77
2.63
2.53
2.50
2.55
2.64
2.72
2.75
2.70
2.62
2.55
2.54
2.60
2.67
2.68
2.54
2.24
1.82
1.37
1.03
0.89
0.99
1.29
1.70
2.11
2.43
2.62
2.65
2.56
2.35
2.07
1.77
1.50
1.34
1.30
1.32
1.31
1.11
0.68
0.06
-0.61
-1.16
-1.48
-1.60
-1.62
-1.64
-1.71
-1.81
-1.87
-1.86
-1.80
-1.74
-1.77
-1.94
-2.26
-2.69
-3.16
-3.62
-4.00
-4.28
-4.51
-4.79
-5.25
-6.05
-7.20
-8.63
-10.10
-11.32
-12.11
-12.46
-12.61
-12.95
-13.84
-15.47
-17.77
-20.37
-22.82
-24.73
-25.95
-26.62
-27.11
-27.92
-29.54
-32.34
-36.40
-41.30
-46.04
-49.09
-48.90
-44.53
-36.18
-25.35
-14.32
-5.29
0.51
3.24
4.23
5.28
7.84
12.48
18.80
25.83
32.50
38.00
41.94
44.28
45.18
44.84
43.41
41.00
37.87
34.40
31.13
28.56
26.94
26.13
25.65
24.87
23.36
21.06
18.31
15.66
13.57
12.26
11.54
11.05
10.37
9.30
7.87
6.33
4.96
3.97
3.39
3.12
2.98
2.82
2.57
2.22
1.79
1.34
0.95
0.68
0.57
0.58
0.63
0.61
0.43
0.12
-0.23
-0.49
-0.57
-0.49
-0.32
-0.17
-0.10
-0.13
-0.22
-0.32
-0.40
-0.40
-0.30
-0.06
0.29
0.67
0.97
1.07
0.93
0.57
0.10
-0.38
-0.81
-1.14
-1.36
-1.42
-1.29
-0.97
-0.52
-0.10
0.15
0.16
-0.03
-0.23
-0.28
-0.09
0.30
0.72
0.97
0.93
0.61
0.12
-0.37
-0.73
-0.90
-0.90
-0.79
-0.67
-0.63
-0.73
-0.97
-1.28
-1.54
-1.62
-1.44
-1.01
-0.41
0.23
0.81
1.28
1.65
1.93
2.13
2.22
2.19
2.06
1.91
1.80
1.80
1.89
2.03
2.11
2.09
1.95
1.71
1.43
1.13
0.83
0.51
0.19
-0.10
-0.30
-0.36
-0.29
-0.10
0.14
0.34
0.46
0.46
0.36
0.18
-0.06
-0.33
-0.59
-0.81
-0.96
-1.03
-1.01
-0.92
-0.77
-0.60
-0.43
-0.31
-0.24
-0.22
-0.25
-0.28
-0.27
-0.21
-0.10
0.00
0.05
-0.01
-0.18
-0.42
-0.63
-0.76
-0.75
-0.62
-0.44
-0.29
-0.23
-0.27
-0.36
-0.45
-0.49
-0.48
-0.44
-0.38
-0.35
-0.34
-0.38
-0.45
-0.54
-0.65
-0.78
-0.97
-1.28
-1.71
-2.23
-2.73
-3.09
-3.21
-3.11
-2.93
-2.86
-3.06
-3.56
-4.23
-4.85
-5.21
-5.25
-5.10
-5.05
-5.45
-6.50
-8.12
-10.00
-11.65
-12.67
-13.00
-12.91
-12.95
-13.67
-15.32
-17.74
-20.43
-22.77
-24.31
-24.97
-25.06
-25.10
-25.64
-27.20
-30.16
-34.65
-40.28
-45.90
-49.65
-49.37
-43.44
-31.63
-15.44
2.28
18.35
30.40
37.54
40.32
40.09
38.21
35.55
32.47
29.18
25.99
23.45
22.10
22.19
23.50
25.36
26.91
27.43
26.62
24.62
21.93
19.08
16.45
14.13
11.95
9.69
7.23
4.64
2.18
0.09
-1.44
-2.41
-2.93
-3.22
-3.50
-3.96
-4.68
-5.69
-6.94
-8.34
-9.74
-10.95
-11.71
-11.72
-10.73
-8.60
-5.37
-1.32
3.10
7.36
10.99
13.67
15.30
15.97
15.88
15.26
14.33
13.26
12.15
11.09
10.13
9.30
8.61
8.06
7.59
7.12
6.56
5.86
5.04
4.21
3.51
3.04
2.81
2.71
2.59
2.31
1.80
1.11
0.37
-0.31
-0.85
-1.25
-1.56
-1.80
-1.97
-2.01
-1.84
-1.39
-0.67
0.24
1.20
2.07
2.77
3.29
3.67
3.97
4.20
4.36
4.40
4.30
4.05
3.65
3.13
2.50
1.76
0.94
0.05
-0.84
-1.65
-2.29
-2.67
-2.73
-2.46
-1.90
-1.15
-0.34
0.44
1.11
1.69
2.22
2.72
3.16
3.48
3.57
3.42
3.07
2.62
2.19
1.86
1.65
1.52
1.44
1.42
1.48
1.65
1.92
2.23
2.46
2.51
2.30
1.85
1.25
0.62
0.06
-0.42
-0.87
-1.38
-2.00
-2.70
-3.35
-3.81
-3.99
-3.93
-3.74
-3.57
-3.48
-3.45
-3.37
-3.16
-2.81
-2.38
-2.00
-1.77
-1.67
-1.64
-1.62
-1.56
-1.50
-1.48
-1.51
-1.53
-1.45
-1.25
-0.96
-0.66
-0.48
-0.45
-0.53
-0.63
-0.62
-0.46
-0.14
0.26
0.65
0.92
1.01
0.90
0.63
0.29
-0.02
-0.22
-0.30
-0.28
-0.22
-0.14
-0.04
0.10
0.28
0.47
0.63
0.73
0.73
0.64
0.48
0.27
0.08
-0.06
-0.14
-0.18
-0.20
-0.24
-0.27
-0.24
-0.11
0.13
0.42
0.65
0.69
0.52
0.19
-0.19
-0.48
-0.61
-0.56
-0.39
-0.16
0.07
0.26
0.41
0.51
0.56
0.54
0.44
0.27
0.09
-0.09
-0.23
-0.34
-0.42
-0.49
-0.54
-0.56
-0.53
-0.45
-0.29
-0.05
0.22
0.46
0.57
0.51
0.25
-0.11
-0.46
-0.70
-0.80
-0.81
-0.80
-0.82
-0.86
-0.88
-0.86
-0.82
-0.80
-0.82
-0.85
-0.83
-0.70
-0.43
-0.08
0.27
0.54
0.69
0.73
0.72
0.69
0.67
0.67
0.63
0.52
0.29
-0.01
-0.33
-0.55
-0.62
-0.53
-0.34
-0.11
0.07
0.16
0.16
0.08
-0.07
-0.26
-0.43
-0.52
-0.45
-0.21
0.16
0.57
0.90
1.05
0.96
0.65
0.20
-0.26
-0.61
-0.71
-0.52
-0.08
0.46
0.89
1.05
0.84
0.33
-0.31
-0.86
-1.12
-1.04
-0.67
-0.18
0.25
0.46
0.44
0.24
0.00
-0.14
-0.14
-0.05
0.03
-0.02
-0.20
-0.41
-0.47
-0.27
0.18
0.72
1.12
1.20
0.93
0.44
-0.05
-0.35
-0.40
-0.28
-0.12
-0.02
0.01
0.03
0.12
0.32
0.59
0.80
0.82
0.58
0.12
-0.44
-0.94
-1.26
-1.36
-1.28
-1.09
-0.86
-0.61
-0.34
-0.03
0.29
0.55
0.70
0.68
0.53
0.28
0.02
-0.18
-0.30
-0.32
-0.27
-0.17
-0.05
0.06
0.11
0.09
0.00
-0.12
-0.24
-0.29
-0.28
-0.20
-0.09
0.02
0.13
0.22
0.31
0.40
0.47
0.51
0.49
0.43
0.32
0.20
0.09
0.03
0.06
0.14
0.25
0.31
0.28
0.17
0.04
-0.03
0.00
0.14
0.31
0.45
0.51
0.51
0.46
0.42
0.40
0.40
0.40
0.38
0.33
0.26
0.17
0.08
0.01
-0.04
-0.06
-0.05
-0.01
0.04
0.07
0.05
-0.04
-0.19
-0.37
-0.47
-0.42
-0.20
0.14
0.45
0.59
0.47
0.17
-0.17
-0.39
-0.38
-0.19
0.07
0.25
0.26
0.08
-0.18
-0.41
-0.51
-0.42
-0.17
0.17
0.50
0.71
0.70
0.45
0.03
-0.42
-0.74
-0.86
-0.79
-0.63
-0.52
-0.51
-0.57
-0.63
-0.60
-0.50
-0.36
-0.26
-0.25
-0.31
-0.38
-0.43
-0.46
-0.49
-0.53
-0.56
-0.54
-0.46
-0.35
-0.26
-0.22
-0.26
-0.32
-0.35
-0.28
-0.10
0.16
0.43
0.61
0.63
0.45
0.14
-0.21
-0.49
-0.63
-0.62
-0.52
-0.39
-0.24
-0.07
0.14
0.37
0.56
0.63
0.56
0.35
0.09
-0.15
-0.31
-0.35
-0.27
-0.10
0.15
0.39
0.57
0.63
0.55
0.41
0.27
0.20
0.20
0.21
0.17
0.05
-0.10
-0.21
-0.23
-0.16
-0.08
-0.09
-0.20
-0.37
-0.51
-0.53
-0.41
-0.24
-0.11
-0.07
-0.09
-0.06
0.08
0.31
0.53
0.64
0.57
0.35
0.09
-0.11
-0.19
-0.17
-0.09
0.03
0.14
0.23
0.24
0.17
0.04
-0.09
-0.13
-0.05
0.09
0.18
0.12
-0.12
-0.45
-0.74
-0.90
-0.88
-0.73
-0.54
-0.34
-0.15
0.02
0.18
0.27
0.25
0.11
-0.14
-0.41
-0.60
-0.63
-0.47
-0.17
0.24
0.67
1.05
1.32
1.43
1.37
1.14
0.80
0.43
0.12
-0.06
-0.06
0.12
0.41
0.70
0.89
0.87
0.65
0.29
-0.07
-0.29
-0.31
-0.16
0.03
0.09
-0.06
-0.40
-0.76
-0.97
-0.87
-0.48
0.06
0.53
0.78
0.77
0.60
0.42
0.37
0.45
0.59
0.66
0.58
0.36
0.06
-0.21
-0.40
-0.51
-0.55
-0.54
-0.49
-0.37
-0.16
0.11
0.35
0.48
0.46
0.28
0.00
-0.29
-0.50
-0.57
-0.45
-0.20
0.13
0.40
0.53
0.46
0.23
-0.06
-0.29
-0.38
-0.31
-0.12
0.10
0.28
0.36
0.33
0.23
0.08
-0.07
-0.20
-0.29
-0.35
-0.36
-0.33
-0.26
-0.17
-0.09
-0.06
-0.07
-0.09
-0.07
0.05
0.23
0.42
0.53
0.52
0.44
0.35
0.34
0.41
0.53
0.63
0.69
0.72
0.76
0.89
1.09
1.32
1.52
1.64
1.71
1.78
1.91
2.14
2.40
2.62
2.73
2.76
2.77
2.89
3.15
3.51
3.85
4.02
3.97
3.72
3.35
2.94
2.49
1.93
1.19
0.28
-0.69
-1.52
-2.08
-2.31
-2.31
-2.25
-2.24
-2.32
-2.45
-2.54
-2.54
-2.49
-2.44
-2.43
-2.45
-2.38
-2.11
-1.56
-0.79
0.09
0.91
1.53
1.92
2.14
2.30
2.51
2.83
3.26
3.71
4.12
4.46
4.79
5.19
5.72
6.42
7.23
8.09
8.94
9.76
10.58
11.39
12.17
12.92
13.60
14.28
15.07
16.09
17.38
18.92
20.63
22.42
24.31
26.37
28.72
31.44
34.49
37.71
40.87
43.79
46.44
48.97
51.70
54.86
58.54
62.55
66.56
70.25
73.49
76.30
78.57
79.86
79.32
75.92
68.85
57.77
42.77
24.15
2.20
-22.62
-49.36
-76.21
-100.63
-120.03
-132.68
-138.42
-138.59
-135.34
-130.67
-125.72
-120.76
-115.56
-110.10
-104.77
-100.27
-97.17
-95.43
-94.24
-92.21
-88.00
-80.81
-70.77
-58.89
-46.79
-36.04
-27.74
-22.22
-19.15
-17.77
-17.34
-17.35
-17.64
-18.33
-19.77
-22.42
-26.57
-32.04
-37.84
-42.11
-42.50
-36.90
-24.37
-5.76
16.32
38.31
56.82
69.70
76.49
78.11
76.12
71.97
66.64
60.68
54.55
48.86
44.33
41.44
40.11
39.51
38.31
35.30
29.94
22.68
14.82
7.93
3.14
0.64
-0.27
-0.85
-2.24
-5.01
-8.97
-13.34
-17.03
-18.90
-18.06
-13.99
-6.79
2.76
13.36
23.44
31.68
37.33
40.36
41.24
40.68
39.38
37.87
36.61
35.97
36.21
37.42
39.53
42.25
45.04
46.98
46.75
42.90
34.39
21.23
4.81
-12.34
-27.42
-38.38
-44.62
-46.97
-47.03
-46.36
-45.82
-45.48
-44.92
-43.60
-41.14
-37.40
-32.43
-26.43
-19.75
-12.81
-6.09
-0.06
4.87
8.38
10.30
10.68
9.83
8.30
6.76
5.77
5.62
6.17
7.04
7.73
7.90
7.44
6.55
5.56
4.77
4.32
4.17
4.09
3.84
3.29
2.45
1.47
0.54
-0.21
-0.71
-0.98
-1.08
-1.03
-0.87
-0.65
-0.44
-0.32
-0.31
-0.42
-0.60
-0.82
-1.03
-1.22
-1.34
-1.35
-1.22
-1.02
-0.85
-0.84
-1.00
-1.23
-1.36
-1.25
-0.88
-0.39
-0.00
0.15
0.08
-0.09
-0.17
-0.05
0.25
0.66
1.08
1.48
1.86
2.29
2.80
3.37
3.94
4.42
4.75
4.95
5.07
5.22
5.48
5.85
6.29
6.72
7.07
7.38
7.68
8.02
8.37
8.71
8.98
9.23
9.56
10.06
10.75
11.46
11.83
11.49
10.19
7.90
4.89
1.63
-1.45
-4.06
-6.14
-7.79
-9.18
-10.42
-11.48
-12.27
-12.71
-12.79
-12.59
-12.24
-11.80
-11.29
-10.68
-9.94
-9.10
-8.23
-7.45
-6.84
-6.41
-6.15
-6.01
-5.91
-5.81
-5.68
-5.52
-5.36
-5.23
-5.14
-5.07
-4.97
-4.76
-4.39
-3.86
-3.18
-2.40
-1.57
-0.71
0.17
1.04
1.85
2.59
3.21
3.69
3.99
4.06
3.88
3.47
2.93
2.42
2.06
1.88
1.80
1.68
1.38
0.91
0.39
0.04
0.00
0.34
0.91
1.51
1.92
2.06
1.98
1.84
1.84
2.07
2.55
3.15
3.74
4.20
4.54
4.83
5.20
5.75
6.47
7.26
8.02
8.68
9.27
9.95
10.87
12.14
13.73
15.47
17.18
18.69
20.01
21.23
22.61
24.45
26.90
29.98
33.45
36.96
40.18
43.01
45.65
48.51
51.99
56.27
61.25
66.76
72.62
78.78
84.94
90.31
93.54
93.24
88.73
80.80
71.63
64.07
60.33
61.00
64.86
69.76
73.93
76.61
77.87
77.51
74.12
65.19
48.28
22.49
-10.75
-48.37
-87.18
-125.10
-161.47
-196.17
-228.37
-255.88
-275.86
-286.04
-286.08
-277.75
-264.10
-248.06
-231.24
-213.62
-193.93
-170.71
-143.37
-112.98
-82.34
-55.29
-35.49
-25.18
-24.39
-31.10
-41.87
-52.66
-59.45
-58.75
-48.32
-27.88
0.37
32.05
61.97
85.78
101.38
109.05
110.50
107.49
100.98
91.29
78.98
65.61
53.84
46.51
45.36
49.78
56.29
58.82
50.18
24.47
-20.11
-79.42
-143.48
-199.14
-234.20
-241.40
-220.52
-177.67
-122.47
-64.66
-11.66
32.30
65.57
88.10
100.74
105.01
103.19
98.12
92.75
89.45
89.32
92.07
96.11
99.22
99.48
96.04
89.47
81.44
73.81
67.77
63.43
59.93
56.10
51.10
44.89
38.05
31.50
26.03
22.01
19.44
17.96
17.09
16.36
15.38
14.00
12.27
10.46
8.90
7.88
7.46
7.46
7.56
7.41
6.80
5.74
4.45
3.25
2.47
2.28
2.66
3.42
4.30
5.11
5.76
6.33
6.97
7.86
9.08
10.59
12.23
13.77
14.99
15.70
15.77
15.20
14.11
12.68
11.14
9.71
8.48
7.49
6.69
6.09
5.74
5.77
6.33
7.48
9.17
11.19
13.17
14.64
15.13
14.28
11.95
8.33
3.90
-0.60
-4.32
-6.43
-6.35
-3.86
0.77
6.82
13.31
19.42
24.77
29.61
34.37
39.14
43.15
44.82
42.43
35.15
23.79
10.84
-0.30
-6.55
-6.30
0.11
10.75
22.75
33.11
39.20
39.34
33.19
22.29
10.07
0.93
-1.67
2.71
10.31
13.58
3.73
-25.66
-75.31
-138.88
-204.22
-257.08
-285.75
-284.80
-256.62
-210.03
-156.94
-108.39
-71.51
-48.24
-36.15
-30.38
-25.89
-19.13
-8.61
5.47
21.85
38.90
54.98
68.61
78.42
83.40
83.19
78.44
70.88
62.90
56.86
54.15
54.71
57.19
59.69
60.65
59.51
56.73
53.40
50.60
49.03
48.81
49.72
51.43
53.69
56.33
59.09
61.57
63.27
63.84
63.26
62.00
60.90
60.91
62.74
66.51
71.50
76.10
78.13
75.53
67.28
54.13
38.71
24.87
16.25
14.81
19.82
27.76
33.33
30.92
16.25
-12.31
-53.13
-101.72
-151.78
-197.12
-233.41
-259.23
-275.79
-285.40
-289.62
-287.96
-278.31
-258.41
-227.95
-189.60
-148.43
-109.94
-77.72
-52.23
-31.26
-11.74
8.28
28.59
47.07
61.27
69.91
73.65
74.69
75.45
77.39
80.42
83.21
84.24
82.74
79.08
74.57
70.68
68.29
67.34
66.96
65.92
63.28
58.82
53.07
47.02
41.71
37.79
35.33
33.87
32.68
31.08
28.68
25.51
21.95
18.51
15.59
13.34
11.67
10.33
9.08
7.79
6.49
5.26
4.20
3.36
2.74
2.32
2.12
2.17
2.51
3.17
4.09
5.15
6.14
6.89
7.37
7.76
8.43
9.80
12.18
15.53
19.52
23.63
27.42
30.67
33.44
35.89
38.05
39.77
40.64
40.33
38.76
36.31
33.71
31.84
31.36
32.49
34.98
38.21
41.52
44.57
47.49
50.89
55.57
62.13
70.71
80.83
91.61
102.02
111.26
119.03
125.59
131.71
138.54
147.13
158.05
170.68
182.91
191.56
193.41
186.64
171.76
151.60
130.30
111.94
99.41
93.99
95.37
101.92
110.88
118.53
120.77
114.06
96.50
68.48
32.33
-8.78
-52.34
-97.29
-143.65
-191.38
-239.24
-284.37
-322.99
-351.80
-369.14
-375.60
-373.51
-365.94
-355.57
-344.11
-332.35
-320.53
-308.83
-297.55
-287.11
-277.79
-269.70
-262.81
-257.08
-252.69
-250.08
-250.08
-253.54
-260.54
-269.58
-277.37
-279.44
-271.83
-253.02
-224.86
-192.01
-159.86
-132.05
-108.96
-87.90
-64.80
-36.19
-0.58
41.37
87.43
134.54
179.29
218.20
248.05
266.61
273.30
269.47
257.94
242.15
225.04
208.50
193.30
179.55
167.05
155.53
144.63
133.81
122.54
110.46
97.66
84.69
72.46
62.00
54.13
49.25
47.22
47.37
48.59
49.68
49.67
48.14
45.27
41.70
38.20
35.37
33.42
32.24
31.53
31.05
30.70
30.50
30.50
30.68
30.87
30.86
30.46
29.59
28.30
26.74
25.08
23.46
21.91
20.40
18.89
17.43
16.10
15.04
14.34
13.95
13.69
13.27
12.50
11.38
10.13
9.10
8.65
8.93
9.84
11.06
12.23
13.04
13.34
13.16
12.63
11.99
11.53
11.54
12.21
13.41
14.67
15.18
14.18
11.30
6.80
1.55
-3.33
-6.87
-8.58
-8.48
-6.95
-4.44
-1.33
2.18
5.92
9.70
13.24
16.29
18.74
20.66
22.34
24.14
26.43
29.34
32.80
36.47
39.90
42.61
44.23
44.52
43.44
41.20
38.24
35.16
32.59
30.93
29.99
28.83
25.75
18.40
4.20
-19.05
-52.37
-94.97
-143.82
-193.87
-238.72
-271.81
-287.66
-282.99
-257.37
-213.50
-156.85
-94.77
-35.16
15.24
52.14
74.46
83.99
84.38
79.67
73.12
66.77
61.57
57.81
55.47
54.35
54.03
53.84
53.00
50.90
47.33
42.49
36.89
31.17
25.91
21.48
18.02
15.44
13.49
11.89
10.44
9.11
7.99
7.22
6.79
6.52
6.10
5.28
4.04
2.60
1.31
0.48
0.24
0.42
0.74
0.86
0.60
-0.03
-0.88
-1.71
-2.32
-2.59
-2.52
-2.17
-1.66
-1.13
-0.68
-0.43
-0.43
-0.67
-1.10
-1.58
-1.98
-2.22
-2.27
-2.19
-2.06
-1.95
-1.87
-1.84
-1.85
-1.92
-2.06
-2.28
-2.52
-2.73
-2.81
-2.69
-2.34
-1.78
-1.12
-0.47
0.04
0.33
0.42
0.41
0.40
0.49
0.71
0.99
1.25
1.42
1.49
1.47
1.39
1.26
1.07
0.82
0.50
0.18
-0.10
-0.29
-0.38
-0.38
-0.32
-0.21
-0.06
0.16
0.44
0.71
0.92
0.99
0.87
0.57
0.18
-0.22
-0.54
-0.76
-0.89
-0.99
-1.12
-1.29
-1.50
-1.67
-1.76
-1.71
-1.51
-1.19
-0.79
-0.37
0.03
0.42
0.80
1.19
1.56
1.89
2.15
2.33
2.45
2.57
2.72
2.92
3.16
3.42
3.74
4.18
4.76
5.51
6.33
7.06
7.56
7.79
7.87
8.08
8.69
9.86
11.52
13.42
15.22
16.62
17.54
18.15
18.80
19.95
21.90
24.70
28.07
31.43
34.16
35.87
36.66
37.16
38.37
41.15
45.83
51.96
58.48
64.24
68.62
71.90
75.14
79.61
86.08
94.47
103.95
113.41
121.79
128.20
131.53
130.12
121.84
104.64
77.33
40.16
-5.36
-57.39
-114.68
-176.77
-242.84
-310.16
-372.98
-423.21
-452.81
-456.87
-435.65
-394.34
-340.61
-281.32
-220.24
-158.03
-94.27
-30.07
30.64
82.09
119.11
139.69
146.04
143.41
137.68
132.93
130.36
128.69
125.79
120.29
112.25
102.88
93.60
85.27
77.85
70.73
63.37
55.70
48.28
42.04
37.78
35.61
34.73
33.65
30.72
24.91
16.38
6.49
-2.73
-9.40
-12.48
-12.10
-9.32
-5.54
-2.03
0.43
1.51
1.20
-0.33
-2.80
-5.82
-8.88
-11.47
-13.18
-13.87
-13.60
-12.66
-11.42
-10.21
-9.27
-8.66
-8.34
-8.14
-7.92
-7.54
-6.98
-6.27
-5.48
-4.67
-3.88
-3.09
-2.29
-1.49
-0.68
0.11
0.89
1.70
2.59
3.54
4.49
5.34
6.03
6.57
7.09
7.74
8.62
9.69
10.83
11.86
12.68
13.35
14.07
15.13
16.70
18.82
21.29
23.76
25.87
27.38
28.22
28.49
28.41
28.16
27.91
27.76
27.79
28.12
28.78
29.59
30.02
29.21
26.25
20.56
12.21
2.01
-8.78
-18.80
-27.15
-33.45
-37.83
-40.62
-42.08
-42.36
-41.57
-39.95
-37.91
-35.95
-34.47
-33.60
-33.16
-32.81
-32.19
-31.12
-29.61
-27.81
-25.88
-23.86
-21.65
-19.00
-15.77
-11.97
-7.87
-3.87
-0.40
2.30
4.24
5.59
6.61
7.51
8.34
9.08
9.66
10.07
10.32
10.47
10.52
10.47
10.30
10.02
9.68
9.31
8.91
8.44
7.85
7.10
6.19
5.19
4.20
3.34
2.68
2.26
2.10
2.12
2.25
2.38
2.42
2.35
2.23
2.13
2.16
2.34
2.64
2.95
3.18
3.24
3.09
2.75
2.26
1.69
1.16
0.76
0.58
0.70
1.09
1.66
2.29
2.81
3.14
3.25
3.16
2.95
2.74
2.61
2.66
2.94
3.45
4.20
5.10
6.07
6.94
7.51
7.64
7.24
6.38
5.27
4.17
3.38
3.07
3.34
4.10
5.20
6.42
7.54
8.39
8.90
9.08
9.06
8.99
8.98
9.07
9.16
9.12
8.80
8.08
6.96
5.49
3.77
1.93
0.13
-1.50
-2.84
-3.80
-4.34
-4.45
-4.19
-3.66
-2.98
-2.27
-1.60
-0.98
-0.37
0.26
0.96
1.70
2.47
3.24
3.98
4.63
5.13
5.38
5.30
4.91
4.23
3.35
2.35
1.28
0.14
-1.04
-2.20
-3.24
-4.02
-4.39
-4.28
-3.66
-2.60
-1.22
0.34
1.94
3.43
4.72
5.70
6.35
6.72
6.95
7.22
7.67
8.32
9.05
9.66
9.99
10.00
9.81
9.66
9.77
10.27
11.09
11.97
12.45
12.01
10.16
6.68
1.69
-4.31
-10.56
-16.38
-21.29
-25.16
-28.08
-30.25
-31.79
-32.72
-33.11
-33.09
-32.97
-33.08
-33.63
-34.57
-35.58
-36.20
-36.08
-35.19
-33.92
-32.95
-33.02
-34.54
-37.41
-40.94
-44.10
-45.98
-46.23
-45.31
-44.43
-45.04
-48.16
-53.84
-61.05
-68.00
-73.01
-75.26
-75.27
-74.78
-75.98
-80.55
-88.91
-99.98
-111.56
-120.86
-125.17
-122.31
-111.25
-92.57
-68.92
-44.73
-25.06
-13.53
-10.37
-11.71
-10.90
-1.62
19.03
48.86
81.63
110.00
128.87
137.17
137.34
133.23
127.71
121.74
114.77
106.16
96.33
86.83
79.45
75.08
73.13
71.84
69.23
64.15
56.78
48.56
41.39
36.72
34.90
35.08
35.66
35.00
32.12
27.13
21.05
15.38
11.37
9.51
9.38
9.79
9.32
6.92
2.31
-3.91
-10.62
-16.55
-20.88
-23.30
-24.07
-23.68
-22.63
-21.17
-19.36
-17.10
-14.27
-10.79
-6.65
-1.96
3.09
8.24
13.17
17.60
21.30
24.08
25.80
26.35
25.69
23.97
21.55
18.98
16.79
15.34
14.68
14.52
14.51
14.42
14.42
15.00
16.72
19.94
24.52
29.82
34.92
38.97
41.58
43.03
44.19
46.11
49.58
54.67
60.72
66.57
71.30
74.60
77.06
79.81
83.88
89.73
97.11
105.34
113.59
121.01
126.82
130.25
130.70
128.15
123.46
118.26
114.55
113.97
117.13
123.30
130.54
135.95
136.40
129.10
112.14
84.97
48.28
3.43
-48.13
-104.87
-164.35
-222.20
-271.90
-306.49
-321.11
-315.59
-295.04
-268.01
-242.94
-224.89
-214.21
-207.89
-202.12
-194.77
-186.14
-177.86
-171.23
-166.01
-160.53
-152.87
-142.11
-128.90
-115.22
-103.43
-94.99
-89.50
-84.64
-76.90
-62.97
-41.22
-12.58
19.69
51.10
77.61
96.93
109.07
115.92
120.16
124.19
129.47
136.39
144.53
153.08
161.01
167.29
171.14
172.34
171.50
170.16
170.42
174.12
181.79
191.86
200.32
201.47
189.36
159.82
112.44
51.87
-12.41
-68.11
-103.75
-112.41
-94.13
-55.66
-7.88
38.06
73.89
95.39
101.64
93.13
70.40
33.64
-16.54
-77.94
-146.25
-215.50
-279.21
-331.89
-370.20
-393.54
-403.87
-404.79
-400.33
-393.77
-387.01
-380.57
-373.95
-366.12
-355.78
-341.52
-321.96
-296.14
-263.81
-225.63
-182.95
-137.18
-89.35
-39.93
10.76
61.84
111.30
155.96
192.27
217.44
230.52
232.75
227.03
216.82
205.03
193.45
182.90
173.71
166.14
160.46
156.57
153.76
150.72
145.95
138.31
127.48
114.00
99.23
84.94
73.00
64.90
61.37
62.12
65.86
70.73
74.92
77.19
77.20
75.31
72.28
68.82
65.45
62.50
60.24
58.97
58.88
59.90
61.58
63.22
64.14
63.94
62.72
60.94
59.24
58.08
57.55
57.39
57.14
56.46
55.32
53.98
52.74
51.65
50.20
47.41
42.14
33.69
22.20
8.81
-4.72
-16.61
-25.81
-32.27
-36.84
-40.69
-44.63
-48.74
-52.43
-54.82
-55.36
-54.11
-51.66
-48.78
-45.99
-43.35
-40.60
-37.46
-33.91
-30.26
-26.95
-24.36
-22.50
-21.10
-19.75
-18.16
-16.36
-14.70
-13.67
-13.60
-14.50
-16.00
-17.53
-18.52
-18.67
-17.99
-16.79
-15.41
-14.17
-13.21
-12.55
-12.20
-12.09
-12.19
-12.38
-12.53
-12.51
-12.22
-11.71
-11.10
-10.51
-9.99
-9.47
-8.82
-7.97
-6.98
-6.11
-5.61
-5.65
-6.18
-6.95
-7.63
-7.96
-7.80
-7.16
-6.14
-4.87
-3.49
-2.16
-1.06
-0.36
-0.14
-0.41
-1.11
-2.18
-3.59
-5.33
-7.35
-9.59
-11.93
-14.24
-16.45
-18.54
-20.55
-22.56
-24.65
-26.90
-29.40
-32.16
-35.08
-37.77
-39.55
-39.57
-37.04
-31.55
-23.31
-13.13
-2.16
8.49
18.02
26.10
32.71
38.02
42.23
45.55
48.32
50.96
53.96
57.66
62.06
66.83
71.36
75.05
77.56
78.90
79.39
79.48
79.55
79.84
80.37
80.98
81.37
81.12
79.76
76.85
72.13
65.54
57.24
47.48
36.50
24.58
12.08
-0.44
-12.18
-22.23
-29.79
-34.37
-35.93
-34.90
-32.03
-28.34
-24.87
-22.60
-22.23
-24.06
-27.92
-33.19
-39.00
-44.48
-48.91
-51.83
-53.09
-52.77
-51.14
-48.56
-45.46
-42.19
-39.04
-36.20
-33.69
-31.46
-29.39
-27.38
-25.34
-23.26
-21.18
-19.16
-17.28
-15.61
-14.21
-13.07
-12.12
-11.26
-10.39
-9.47
-8.51
-7.55
-6.65
-5.80
-5.02
-4.29
-3.67
-3.20
-2.92
-2.77
-2.70
-2.61
-2.48
-2.36
-2.36
-2.56
-3.02
-3.72
-4.62
-5.61
-6.48
-6.94
-6.65
-5.37
-3.13
-0.30
2.55
4.82
6.15
6.55
6.26
5.68
5.07
4.58
4.18
3.83
3.50
3.19
2.94
2.71
2.46
2.16
1.79
1.41
1.08
0.89
0.86
0.95
1.09
1.15
1.04
0.71
0.21
-0.34
-0.75
-0.88
-0.62
-0.02
0.76
1.52
2.07
2.30
2.25
2.04
1.80
1.61
1.47
1.33
1.20
1.10
1.10
1.26
1.50
1.70
1.71
1.47
1.06
0.63
0.32
0.18
0.16
0.17
0.16
0.15
0.21
0.38
0.65
0.90
0.99
0.85
0.51
0.11
-0.19
-0.25
-0.08
0.22
0.53
0.72
0.76
0.67
0.48
0.25
0.01
-0.24
-0.49
-0.70
-0.86
-0.94
-0.95
-0.93
-0.91
-0.91
-0.89
-0.77
-0.51
-0.11
0.35
0.73
0.91
0.84
0.58
0.24
-0.03
-0.17
-0.17
-0.08
0.04
0.17
0.29
0.41
0.49
0.50
0.36
0.07
-0.29
-0.63
-0.80
-0.72
-0.42
0.00
0.41
0.65
0.65
0.43
0.06
-0.37
-0.76
-1.04
-1.18
-1.20
-1.12
-0.98
-0.79
-0.57
-0.37
-0.22
-0.21
-0.36
-0.64
-0.91
-1.03
-0.89
-0.52
-0.05
0.35
0.56
0.56
0.45
0.32
0.23
0.17
0.10
-0.01
-0.15
-0.24
-0.24
-0.11
0.16
0.51
0.85
1.11
1.21
1.13
0.89
0.57
0.24
0.00
-0.12
-0.16
-0.18
-0.24
-0.37
-0.54
-0.67
-0.72
-0.67
-0.57
-0.46
-0.36
-0.27
-0.11
0.14
0.46
0.76
0.91
0.83
0.50
0.01
-0.54
-1.00
-1.33
-1.49
-1.53
-1.52
-1.52
-1.55
-1.63
-1.75
-1.88
-2.02
-2.16
-2.33
-2.53
-2.78
-3.05
-3.31
-3.52
-3.66
-3.73
-3.77
-3.82
-3.89
-3.98
-4.01
-3.95
-3.77
-3.50
-3.18
-2.84
-2.47
-2.01
-1.42
-0.73
-0.01
0.69
1.31
1.91
2.57
3.34
4.19
5.02
5.67
6.03
6.05
5.78
5.35
4.91
4.55
4.33
4.24
4.23
4.19
4.04
3.77
3.38
2.97
2.63
2.36
2.14
1.89
1.55
1.12
0.68
0.32
0.10
-0.01
-0.06
-0.12
-0.22
-0.34
-0.43
-0.47
-0.48
-0.52
-0.65
-0.87
-1.15
-1.38
-1.46
-1.32
-0.94
-0.38
0.24
0.75
1.00
0.95
0.63
0.21
-0.12
-0.23
-0.08
0.25
0.60
0.85
0.93
0.84
0.66
0.43
0.22
0.02
-0.15
-0.26
-0.28
-0.22
-0.09
0.03
0.05
-0.08
-0.39
-0.80
-1.20
-1.51
-1.67
-1.73
-1.80
-2.00
-2.40
-2.96
-3.55
-4.05
-4.36
-4.51
-4.58
-4.71
-5.02
-5.53
-6.23
-7.08
-8.01
-8.98
-9.97
-10.99
-12.05
-13.16
-14.34
-15.59
-16.89
-18.22
-19.56
-20.95
-22.46
-24.13
-25.98
-28.00
-30.13
-32.38
-34.77
-37.28
-39.91
-42.55
-45.13
-47.62
-50.20
-53.17
-56.80
-61.14
-65.79
-69.91
-72.36
-72.03
-68.06
-60.14
-48.57
-34.15
-18.05
-1.56
14.11
28.00
39.43
48.11
54.12
57.88
60.11
61.55
62.84
64.26
65.79
67.11
67.85
67.79
66.89
65.28
63.10
60.39
57.11
53.25
48.93
44.37
39.85
35.59
31.68
28.09
24.73
21.53
18.48
15.59
12.88
10.35
8.03
5.94
4.13
2.69
1.63
0.92
0.47
0.18
0.04
0.06
0.27
0.67
1.17
1.61
1.85
1.81
1.54
1.17
0.85
0.68
0.67
0.74
0.78
0.73
0.56
0.34
0.17
0.13
0.23
0.43
0.64
0.75
0.68
0.42
0.04
-0.41
-0.87
-1.31
-1.74
-2.18
-2.57
-2.85
-2.93
-2.76
-2.38
-1.86
-1.33
-0.85
-0.47
-0.14
0.16
0.46
0.73
0.93
1.05
1.12
1.16
1.19
1.20
1.15
0.99
0.71
0.32
-0.15
-0.66
-1.17
-1.69
-2.19
-2.62
-2.89
-2.89
-2.57
-1.97
-1.19
-0.38
0.31
0.82
1.14
1.31
1.40
1.47
1.54
1.66
1.82
2.04
2.27
2.42
2.42
2.24
1.94
1.63
1.45
1.46
1.62
1.83
1.96
1.98
1.90
1.78
1.66
1.55
1.40
1.23
1.09
1.09
1.27
1.59
1.83
1.74
1.15
0.05
-1.37
-2.81
-3.99
-4.75
-5.11
-5.15
-5.01
-4.75
-4.42
-4.04
-3.62
-3.21
-2.86
-2.64
-2.55
-2.56
-2.60
-2.61
-2.50
-2.27
-1.96
-1.65
-1.45
-1.36
-1.35
-1.34
-1.25
-1.07
-0.83
-0.62
-0.46
-0.37
-0.31
-0.27
-0.25
-0.26
-0.30
-0.33
-0.36
-0.35
-0.31
-0.27
-0.22
-0.15
-0.05
0.09
0.21
0.26
0.19
0.05
-0.09
-0.12
0.00
0.23
0.46
0.57
0.50
0.27
-0.01
-0.21
-0.28
-0.21
-0.10
-0.06
-0.15
-0.36
-0.61
-0.77
-0.77
-0.61
-0.37
-0.16
-0.12
-0.25
-0.47
-0.65
-0.65
-0.43
-0.05
0.34
0.60
0.70
0.67
0.60
0.59
0.62
0.66
0.61
0.43
0.13
-0.20
-0.47
-0.57
-0.48
-0.22
0.10
0.36
0.47
0.41
0.24
0.06
-0.01
0.06
0.24
0.47
0.65
0.77
0.85
0.91
0.98
1.04
1.05
0.96
0.77
0.53
0.32
0.26
0.38
0.65
0.92
1.02
0.82
0.36
-0.16
-0.49
-0.41
0.08
0.82
1.52
1.98
2.12
2.06
1.96
1.95
2.05
2.16
2.24
2.28
2.35
2.54
2.92
3.45
4.04
4.63
5.14
5.56
5.91
6.22
6.57
6.97
7.44
7.92
8.38
8.77
9.05
9.17
9.02
8.43
7.26
5.43
3.06
0.40
-2.20
-4.41
-5.99
-6.87
-7.11
-6.84
-6.24
-5.49
-4.73
-4.04
-3.39
-2.74
-2.03
-1.24
-0.39
0.46
1.24
1.87
2.24
2.22
1.74
0.83
-0.41
-1.78
-3.06
-4.09
-4.81
-5.24
-5.46
-5.56
-5.62
-5.68
-5.75
-5.80
-5.80
-5.71
-5.53
-5.28
-5.00
-4.72
-4.44
-4.14
-3.82
-3.52
-3.27
-3.12
-3.05
-3.00
-2.87
-2.62
-2.23
-1.79
-1.42
-1.18
-1.10
-1.13
-1.18
-1.22
-1.21
-1.20
-1.19
-1.20
-1.22
-1.21
-1.18
-1.12
-1.03
-0.90
-0.73
-0.50
-0.23
0.07
0.34
0.56
0.72
0.80
0.82
0.77
0.65
0.48
0.29
0.12
0.05
0.08
0.18
0.32
0.43
0.50
0.52
0.52
0.49
0.45
0.37
0.26
0.13
-0.00
-0.10
-0.14
-0.16
-0.17
-0.22
-0.29
-0.37
-0.42
-0.45
-0.47
-0.49
-0.52
-0.52
-0.47
-0.35
-0.18
-0.03
0.05
0.00
-0.12
-0.22
-0.20
-0.03
0.22
0.46
0.54
0.44
0.19
-0.09
-0.27
-0.28
-0.13
0.11
0.34
0.46
0.45
0.32
0.11
-0.13
-0.37
-0.56
-0.71
-0.78
-0.73
-0.56
-0.28
0.01
0.19
0.18
-0.02
-0.30
-0.48
-0.43
-0.14
0.30
0.71
0.96
0.97
0.81
0.57
0.35
0.21
0.14
0.11
0.09
0.04
-0.01
-0.06
-0.06
0.03
0.22
0.46
0.68
0.75
0.62
0.30
-0.11
-0.49
-0.71
-0.74
-0.62
-0.45
-0.34
-0.32
-0.38
-0.46
-0.45
-0.34
-0.16
-0.00
0.07
0.05
0.00
0.03
0.17
0.40
0.59
0.65
0.53
0.28
0.03
-0.13
-0.16
-0.10
-0.03
0.04
0.11
0.23
0.40
0.57
0.64
0.56
0.32
-0.04
-0.42
-0.76
-1.01
-1.14
-1.12
-0.92
-0.57
-0.12
0.33
0.67
0.84
0.82
0.66
0.44
0.20
-0.01
-0.17
-0.26
-0.25
-0.13
0.06
0.24
0.35
0.34
0.24
0.08
-0.10
-0.29
-0.48
-0.67
-0.84
-0.99
-1.12
-1.23
-1.32
-1.38
-1.36
-1.22
-1.00
-0.80
-0.72
-0.80
-1.01
-1.21
-1.31
-1.27
-1.15
-1.09
-1.17
-1.40
-1.71
-1.99
-2.16
-2.22
-2.21
-2.22
-2.33
-2.57
-2.94
-3.42
-3.98
-4.58
-5.22
-5.86
-6.40
-6.70
-6.54
-5.77
-4.35
-2.39
-0.19
1.93
3.70
4.98
5.78
6.19
6.31
6.17
5.81
5.28
4.67
4.13
3.76
3.60
3.58
3.61
3.55
3.36
3.07
2.76
2.48
2.22
1.95
1.58
1.13
0.63
0.18
-0.12
-0.23
-0.19
-0.04
0.15
0.35
0.55
0.75
0.91
0.98
0.91
0.69
0.38
0.09
-0.07
-0.04
0.17
0.48
0.76
0.90
0.81
0.50
0.05
-0.41
-0.76
-0.95
-0.99
-0.98
-1.03
-1.21
-1.51
-1.85
-2.08
-2.14
-2.02
-1.85
-1.78
-1.96
-2.43
-3.13
-3.91
-4.58
-5.00
-5.14
-5.04
-4.85
-4.70
-4.70
-4.92
-5.36
-6.03
-6.86
-7.68
-8.22
-8.12
-7.07
-4.97
-2.00
1.42
4.70
7.34
9.08
9.93
10.10
9.84
9.37
8.76
8.09
7.37
6.70
6.15
5.76
5.48
5.22
4.90
4.46
3.93
3.38
2.89
2.49
2.16
1.87
1.61
1.38
1.20
1.08
1.00
0.94
0.89
0.87
0.92
1.03
1.17
1.26
1.22
1.02
0.71
0.38
0.15
0.07
0.13
0.26
0.32
0.22
-0.05
-0.44
-0.87
-1.22
-1.44
-1.54
-1.57
-1.57
-1.54
-1.45
-1.27
-1.02
-0.76
-0.58
-0.55
-0.65
-0.81
-0.93
-0.95
-0.86
-0.70
-0.51
-0.32
-0.16
-0.03
0.05
0.05
-0.04
-0.20
-0.41
-0.60
-0.72
-0.75
-0.66
-0.45
-0.15
0.17
0.45
0.59
0.56
0.37
0.09
-0.19
-0.38
-0.45
-0.40
-0.28
-0.16
-0.07
-0.04
-0.04
-0.02
0.03
0.11
0.21
0.31
0.36
0.35
0.26
0.07
-0.19
-0.50
-0.78
-0.97
-1.01
-0.89
-0.66
-0.38
-0.13
0.05
0.14
0.16
0.15
0.16
0.25
0.47
0.79
1.13
1.35
1.31
0.99
0.46
-0.10
-0.51
-0.70
-0.71
-0.68
-0.72
-0.84
-0.96
-0.97
-0.77
-0.39
0.06
0.46
0.70
0.79
0.76
0.69
0.61
0.51
0.36
0.15
-0.09
-0.31
-0.46
-0.50
-0.42
-0.28
-0.14
-0.04
-0.01
-0.05
-0.14
-0.24
-0.30
-0.31
-0.23
-0.09
0.10
0.27
0.39
0.43
0.39
0.30
0.23
0.22
0.32
0.52
0.77
1.00
1.12
1.10
0.97
0.80
0.66
0.61
0.60
0.57
0.41
0.09
-0.35
-0.79
-1.06
-1.03
-0.70
-0.19
0.31
0.62
0.65
0.44
0.10
-0.22
-0.41
-0.48
-0.45
-0.40
-0.36
-0.31
-0.22
-0.08
0.07
0.17
0.15
-0.01
-0.31
-0.67
-1.00
-1.21
-1.29
-1.25
-1.15
-1.04
-0.95
-0.88
-0.82
-0.73
-0.60
-0.44
-0.25
-0.02
0.25
0.56
0.88
1.17
1.37
1.45
1.41
1.27
1.10
0.97
0.90
0.86
0.80
0.66
0.40
0.08
-0.21
-0.37
-0.37
-0.24
-0.07
0.03
0.01
-0.15
-0.42
-0.75
-1.06
-1.27
-1.34
-1.27
-1.08
-0.82
-0.52
-0.18
0.20
0.58
0.88
1.00
0.85
0.48
0.03
-0.29
-0.32
-0.04
0.43
0.86
1.03
0.86
0.39
-0.18
-0.67
-0.92
-0.90
-0.70
-0.40
-0.10
0.17
0.40
0.57
0.66
0.64
0.55
0.42
0.35
0.37
0.44
0.49
0.45
0.30
0.10
-0.05
-0.07
0.02
0.19
0.37
0.50
0.60
0.66
0.69
0.66
0.54
0.31
0.02
-0.26
-0.45
-0.49
-0.39
-0.23
-0.08
0.02
0.07
0.12
0.17
0.22
0.22
0.10
-0.12
-0.40
-0.61
-0.65
-0.48
-0.13
0.25
0.54
0.63
0.53
0.29
0.03
-0.16
-0.21
-0.14
0.00
0.14
0.20
0.12
-0.09
-0.42
-0.80
-1.13
-1.33
-1.33
-1.14
-0.81
-0.45
-0.18
-0.04
-0.01
0.03
0.18
0.54
1.05
1.60
2.03
2.24
2.23
2.05
1.79
1.50
1.21
0.94
0.73
0.64
0.74
1.00
1.32
1.56
1.59
1.37
0.96
0.49
0.08
-0.18
-0.26
-0.22
-0.09
0.04
0.10
0.04
-0.16
-0.46
-0.77
-0.97
-0.94
-0.67
-0.24
0.21
0.57
0.74
0.76
0.69
0.62
0.57
0.53
0.49
0.45
0.46
0.58
0.83
1.21
1.64
2.01
2.23
2.27
2.14
1.87
1.48
0.98
0.36
-0.34
-1.10
-1.83
-2.45
-2.88
-3.09
-3.11
-3.00
-2.86
-2.73
-2.59
-2.39
-2.10
-1.74
-1.38
-1.12
-1.01
-1.01
-1.01
-0.92
-0.72
-0.50
-0.36
-0.40
-0.59
-0.82
-0.97
-0.97
-0.86
-0.75
-0.73
-0.81
-0.90
-0.91
-0.77
-0.54
-0.33
-0.24
-0.35
-0.60
-0.88
-1.08
-1.11
-0.96
-0.70
-0.40
-0.15
-0.01
-0.03
-0.22
-0.51
-0.82
-1.03
-1.07
-0.95
-0.78
-0.67
-0.71
-0.85
-0.94
-0.83
-0.45
0.11
0.66
0.98
0.99
0.76
0.49
0.38
0.53
0.88
1.27
1.55
1.65
1.57
1.39
1.16
0.94
0.72
0.52
0.35
0.21
0.09
-0.04
-0.18
-0.29
-0.33
-0.29
-0.18
-0.05
0.03
0.02
-0.06
-0.16
-0.23
-0.26
-0.23
-0.16
-0.04
0.14
0.36
0.61
0.81
0.93
0.94
0.82
0.59
0.30
0.01
-0.22
-0.30
-0.21
0.04
0.34
0.55
0.55
0.32
-0.05
-0.40
-0.57
-0.48
-0.21
0.08
0.17
-0.03
-0.49
-1.02
-1.41
-1.49
-1.24
-0.76
-0.22
0.22
0.53
0.70
0.78
0.78
0.67
0.45
0.18
-0.05
-0.12
0.03
0.35
0.68
0.87
0.82
0.54
0.19
-0.10
-0.22
-0.16
-0.02
0.13
0.23
0.28
0.28
0.25
0.17
0.01
-0.24
-0.52
-0.74
-0.80
-0.68
-0.41
-0.10
0.14
0.22
0.13
-0.09
-0.37
-0.61
-0.71
-0.61
-0.31
0.13
0.60
0.94
1.05
0.88
0.49
0.00
-0.45
-0.75
-0.88
-0.83
-0.64
-0.36
-0.03
0.27
0.47
0.54
0.47
0.34
0.24
0.23
0.29
0.35
0.33
0.20
-0.01
-0.20
-0.29
-0.23
-0.03
0.25
0.53
0.74
0.85
0.85
0.71
0.47
0.18
-0.13
-0.44
-0.76
-1.11
-1.45
-1.70
-1.75
-1.51
-1.00
-0.36
0.24
0.64
0.78
0.70
0.52
0.35
0.24
0.21
0.22
0.25
0.30
0.40
0.58
0.80
1.00
1.10
1.03
0.78
0.44
0.11
-0.08
-0.11
-0.00
0.11
0.13
0.02
-0.19
-0.39
-0.48
-0.43
-0.26
-0.05
0.13
0.21
0.19
0.09
-0.04
-0.18
-0.32
-0.44
-0.53
-0.56
-0.50
-0.36
-0.15
0.07
0.23
0.28
0.19
-0.04
-0.36
-0.70
-0.98
-1.11
-1.05
-0.82
-0.51
-0.23
-0.09
-0.08
-0.13
-0.12
-0.00
0.21
0.40
0.46
0.33
0.05
-0.27
-0.53
-0.64
-0.60
-0.44
-0.18
0.15
0.52
0.86
1.07
1.06
0.78
0.29
-0.24
-0.62
-0.68
-0.40
0.13
0.68
1.04
1.08
0.82
0.42
0.07
-0.07
0.01
0.20
0.36
0.38
0.22
-0.05
-0.32
-0.52
-0.61
-0.62
-0.58
-0.53
-0.45
-0.34
-0.20
-0.04
0.11
0.23
0.28
0.26
0.15
-0.05
-0.30
-0.55
-0.73
-0.77
-0.67
-0.47
-0.25
-0.08
0.01
0.04
0.05
0.07
0.07
0.01
-0.10
-0.24
-0.34
-0.37
-0.30
-0.18
-0.05
0.07
0.20
0.34
0.51
0.66
0.74
0.72
0.64
0.58
0.60
0.69
0.78
0.78
0.61
0.29
-0.09
-0.41
-0.57
-0.56
-0.41
-0.18
0.06
0.26
0.39
0.45
0.44
0.36
0.22
0.03
-0.18
-0.40
-0.57
-0.69
-0.72
-0.66
-0.53
-0.37
-0.24
-0.17
-0.15
-0.18
-0.23
-0.28
-0.31
-0.28
-0.19
-0.04
0.14
0.30
0.39
0.35
0.19
-0.05
-0.31
-0.52
-0.65
-0.67
-0.58
-0.37
-0.08
0.28
0.63
0.89
0.98
0.90
0.66
0.38
0.16
0.08
0.11
0.20
0.23
0.15
0.01
-0.14
-0.22
-0.21
-0.13
-0.05
-0.02
-0.04
-0.05
-0.02
0.05
0.12
0.16
0.14
0.10
0.07
0.05
0.04
-0.01
-0.07
-0.10
-0.05
0.08
0.24
0.33
0.28
0.10
-0.12
-0.25
-0.23
-0.08
0.08
0.16
0.10
-0.05
-0.21
-0.34
-0.41
-0.46
-0.48
-0.44
-0.32
-0.12
0.11
0.29
0.36
0.31
0.18
0.04
-0.08
-0.17
-0.23
-0.27
-0.27
-0.23
-0.12
0.03
0.20
0.33
0.42
0.45
0.41
0.30
0.13
-0.05
-0.21
-0.28
-0.25
-0.12
0.03
0.15
0.18
0.13
0.05
0.01
0.05
0.12
0.16
0.11
0.01
-0.08
-0.04
0.16
0.43
0.62
0.55
0.16
-0.42
-0.98
-1.29
-1.27
-0.99
-0.68
-0.54
-0.68
-1.07
-1.61
-2.14
-2.58
-2.87
-3.01
-3.07
-3.11
-3.20
-3.40
-3.73
-4.14
-4.52
-4.77
-4.82
-4.69
-4.53
-4.51
-4.79
-5.41
-6.26
-7.13
-7.80
-8.20
-8.42
-8.66
-9.18
-10.15
-11.56
-13.26
-14.91
-16.04
-16.15
-14.84
-11.99
-7.96
-3.49
0.50
3.29
4.59
4.68
4.14
3.53
3.16
3.02
2.96
2.90
2.93
3.28
4.06
5.20
6.41
7.27
7.44
6.68
5.03
2.68
-0.04
-2.76
-5.18
-7.13
-8.64
-9.87
-11.04
-12.26
-13.52
-14.64
-15.38
-15.55
-14.95
-13.43
-10.87
-7.22
-2.62
2.56
7.73
12.30
15.80
18.07
19.22
19.49
19.09
18.18
16.84
15.23
13.57
12.14
11.22
10.91
11.15
11.74
12.44
13.04
13.41
13.52
13.37
13.05
12.61
12.13
11.65
11.17
10.69
10.21
9.75
9.34
9.01
8.82
8.75
8.78
8.86
8.87
8.72
8.28
7.46
6.17
4.39
2.18
-0.35
-2.99
-5.55
-7.81
-9.62
-10.92
-11.71
-12.06
-12.06
-11.80
-11.34
-10.71
-9.92
-8.96
-7.84
-6.60
-5.29
-3.99
-2.74
-1.57
-0.49
0.50
1.42
2.28
3.09
3.85
4.57
5.24
5.87
6.43
6.87
7.15
7.24
7.20
7.09
6.96
6.75
6.37
5.69
4.67
3.37
1.92
0.49
-0.83
-2.01
-3.10
-4.11
-5.01
-5.74
-6.29
-6.73
-7.19
-7.75
-8.40
-8.95
-9.16
-8.84
-7.97
-6.70
-5.30
-4.03
-3.04
-2.33
-1.78
-1.26
-0.71
-0.13
0.42
0.86
1.17
1.36
1.47
1.53
1.53
1.44
1.25
0.98
0.69
0.49
0.47
0.67
1.06
1.48
1.76
1.77
1.48
1.02
0.60
0.40
0.46
0.69
0.90
0.93
0.72
0.36
0.02
-0.16
-0.15
-0.02
0.13
0.18
0.11
-0.04
-0.19
-0.28
-0.27
-0.20
-0.10
-0.00
0.12
0.29
0.54
0.82
1.05
1.15
1.10
0.92
0.70
0.51
0.41
0.37
0.37
0.37
0.41
0.51
0.68
0.88
1.00
0.94
0.68
0.28
-0.15
-0.48
-0.62
-0.59
-0.47
-0.37
-0.35
-0.40
-0.42
-0.34
-0.09
0.25
0.57
0.75
0.71
0.49
0.18
-0.09
-0.24
-0.26
-0.18
-0.04
0.14
0.34
0.57
0.77
0.89
0.87
0.71
0.45
0.17
-0.03
-0.10
-0.03
0.16
0.39
0.60
0.70
0.66
0.47
0.20
-0.06
-0.23
-0.32
-0.36
-0.43
-0.58
-0.78
-0.93
-0.95
-0.78
-0.48
-0.17
0.06
0.14
0.12
0.06
0.01
-0.02
-0.08
-0.18
-0.31
-0.39
-0.36
-0.23
-0.06
0.06
0.02
-0.17
-0.46
-0.70
-0.79
-0.70
-0.50
-0.30
-0.21
-0.27
-0.44
-0.60
-0.62
-0.46
-0.12
0.27
0.55
0.61
0.45
0.17
-0.09
-0.22
-0.21
-0.15
-0.15
-0.28
-0.52
-0.76
-0.87
-0.81
-0.58
-0.33
-0.17
-0.17
-0.28
-0.38
-0.36
-0.20
0.01
0.12
0.03
-0.22
-0.49
-0.63
-0.53
-0.25
0.02
0.12
-0.01
-0.27
-0.46
-0.45
-0.22
0.10
0.34
0.41
0.34
0.25
0.22
0.30
0.41
0.47
0.42
0.28
0.16
0.14
0.27
0.56
0.94
1.33
1.67
1.89
1.95
1.85
1.65
1.40
1.17
0.99
0.85
0.70
0.53
0.36
0.21
0.12
0.08
0.05
-0.02
-0.14
-0.30
-0.48
-0.63
-0.74
-0.80
-0.81
-0.74
-0.61
-0.44
-0.28
-0.19
-0.20
-0.30
-0.44
-0.52
-0.50
-0.37
-0.19
-0.05
0.02
0.05
0.11
0.26
0.51
0.78
0.97
1.04
1.03
1.03
1.15
1.40
1.71
1.94
2.02
1.95
1.81
1.74
1.85
2.15
2.61
3.16
3.76
4.36
4.96
5.53
6.04
6.40
6.52
6.32
5.79
5.02
4.14
3.33
2.66
2.16
1.77
1.40
1.00
0.56
0.07
-0.44
-1.02
-1.69
-2.49
-3.38
-4.31
-5.14
-5.75
-6.09
-6.14
-5.98
-5.71
-5.42
-5.17
-4.95
-4.76
-4.55
-4.32
-4.06
-3.79
-3.55
-3.36
-3.21
-3.09
-2.96
-2.78
-2.55
-2.25
-1.93
-1.63
-1.38
-1.18
-1.02
-0.87
-0.67
-0.43
-0.17
0.07
0.27
0.42
0.55
0.69
0.85
0.97
1.02
0.95
0.77
0.54
0.35
0.27
0.32
0.50
0.75
1.06
1.40
1.73
2.01
2.16
2.14
1.94
1.65
1.37
1.22
1.26
1.47
1.77
2.04
2.25
2.41
2.59
2.88
3.33
3.91
4.54
5.09
5.46
5.63
5.64
5.56
5.49
5.47
5.56
5.76
6.07
6.44
6.77
6.87
6.51
5.55
3.98
2.00
-0.08
-1.95
-3.45
-4.55
-5.36
-6.01
-6.61
-7.16
-7.61
-7.90
-7.97
-7.83
-7.46
-6.88
-6.14
-5.33
-4.54
-3.87
-3.42
-3.21
-3.22
-3.38
-3.59
-3.74
-3.75
-3.56
-3.19
-2.70
-2.13
-1.59
-1.17
-0.97
-1.02
-1.32
-1.71
-2.03
-2.09
-1.86
-1.39
-0.86
-0.44
-0.22
-0.17
-0.20
-0.20
-0.15
-0.03
0.09
0.19
0.23
0.22
0.19
0.16
0.18
0.25
0.38
0.54
0.67
0.74
0.76
0.74
0.70
0.65
0.56
0.43
0.26
0.06
-0.12
-0.22
-0.21
-0.07
0.19
0.49
0.71
0.73
0.52
0.10
-0.41
-0.86
-1.15
-1.24
-1.19
-1.04
-0.85
-0.68
-0.56
-0.53
-0.62
-0.81
-1.05
-1.26
-1.38
-1.38
-1.27
-1.10
-0.91
-0.73
-0.56
-0.40
-0.25
-0.13
-0.07
-0.08
-0.17
-0.31
-0.42
-0.44
-0.34
-0.12
0.13
0.30
0.34
0.26
0.13
0.05
0.08
0.19
0.32
0.37
0.31
0.16
-0.02
-0.15
-0.20
-0.16
-0.05
0.15
0.45
0.85
1.30
1.71
1.94
1.86
1.44
0.74
-0.06
-0.77
-1.22
-1.31
-1.09
-0.67
-0.26
-0.02
-0.06
-0.35
-0.76
-1.11
-1.30
-1.30
-1.19
-1.08
-1.06
-1.11
-1.14
-1.05
-0.78
-0.38
0.03
0.33
0.46
0.45
0.37
0.34
0.43
0.60
0.80
0.92
0.93
0.85
0.76
0.78
0.94
1.21
1.47
1.63
1.66
1.61
1.60
1.67
1.79
1.84
1.69
1.31
0.79
0.28
-0.04
-0.10
0.02
0.20
0.29
0.24
0.13
0.03
0.06
0.22
0.43
0.57
0.54
0.34
0.05
-0.21
-0.33
-0.29
-0.13
0.06
0.19
0.22
0.19
0.12
0.05
-0.03
-0.11
-0.17
-0.22
-0.21
-0.17
-0.13
-0.12
-0.14
-0.19
-0.21
-0.20
-0.22
-0.30
-0.49
-0.73
-0.90
-0.90
-0.69
-0.34
-0.01
0.19
0.18
0.05
-0.06
-0.04
0.15
0.41
0.59
0.56
0.32
-0.05
-0.36
-0.48
-0.40
-0.20
-0.01
0.06
-0.01
-0.15
-0.26
-0.27
-0.18
-0.05
0.05
0.13
0.21
0.37
0.63
0.92
1.15
1.22
1.06
0.74
0.37
0.05
-0.13
-0.19
-0.17
-0.11
-0.04
0.06
0.17
0.25
0.25
0.11
-0.12
-0.33
-0.41
-0.30
-0.01
0.32
0.55
0.57
0.40
0.10
-0.21
-0.49
-0.73
-0.97
-1.24
-1.49
-1.61
-1.53
-1.21
-0.72
-0.19
0.22
0.44
0.47
0.39
0.28
0.20
0.18
0.19
0.23
0.28
0.32
0.31
0.23
0.08
-0.08
-0.16
-0.11
0.09
0.36
0.58
0.65
0.55
0.36
0.21
0.20
0.34
0.55
0.71
0.74
0.62
0.43
0.31
0.35
0.59
0.95
1.35
1.67
1.85
1.89
1.81
1.67
1.50
1.36
1.30
1.38
1.62
1.98
2.37
2.73
2.97
3.11
3.23
3.45
3.82
4.37
5.01
5.65
6.18
6.57
6.83
7.04
7.28
7.64
8.17
8.90
9.79
10.79
11.80
12.74
13.54
14.14
14.53
14.79
15.00
15.28
15.63
15.94
15.96
15.43
14.15
12.05
9.22
5.82
2.05
-1.92
-5.90
-9.69
-13.04
-15.76
-17.73
-19.00
-19.71
-20.04
-20.10
-19.87
-19.34
-18.48
-17.35
-16.11
-14.89
-13.78
-12.80
-11.88
-10.93
-9.93
-8.90
-7.91
-7.06
-6.37
-5.84
-5.42
-5.07
-4.75
-4.47
-4.19
-3.88
-3.49
-3.00
-2.41
-1.77
-1.18
-0.72
-0.43
-0.28
-0.20
-0.08
0.13
0.43
0.75
1.01
1.14
1.15
1.11
1.10
1.14
1.20
1.17
0.97
0.62
0.19
-0.20
-0.48
-0.62
-0.67
-0.70
-0.69
-0.64
-0.49
-0.28
-0.06
0.07
0.03
-0.17
-0.49
-0.85
-1.15
-1.30
-1.23
-0.94
-0.48
-0.01
0.32
0.40
0.22
-0.11
-0.42
-0.60
-0.59
-0.48
-0.35
-0.29
-0.30
-0.37
-0.45
-0.55
-0.69
-0.88
-1.04
-1.08
-0.90
-0.48
0.08
0.61
0.94
0.97
0.72
0.29
-0.17
-0.56
-0.82
-0.95
-1.01
-1.05
-1.10
-1.17
-1.25
-1.32
-1.33
-1.25
-1.10
-0.92
-0.76
-0.66
-0.61
-0.60
-0.59
-0.56
-0.54
-0.57
-0.66
-0.78
-0.89
-0.94
-0.93
-0.85
-0.75
-0.61
-0.44
-0.21
0.02
0.20
0.21
0.05
-0.25
-0.59
-0.88
-1.09
-1.27
-1.49
-1.77
-2.07
-2.30
-2.40
-2.37
-2.26
-2.18
-2.20
-2.32
-2.48
-2.59
-2.59
-2.46
-2.27
-2.15
-2.22
-2.55
-3.15
-3.95
-4.83
-5.66
-6.34
-6.83
-7.15
-7.39
-7.67
-8.12
-8.83
-9.80
-10.89
-11.89
-12.57
-12.77
-12.49
-11.85
-11.04
-10.22
-9.44
-8.62
-7.62
-6.30
-4.61
-2.64
-0.59
1.28
2.74
3.67
4.04
3.96
3.61
3.22
3.02
3.23
3.98
5.28
6.94
8.61
9.89
10.48
10.31
9.54
8.48
7.39
6.49
5.87
5.67
6.10
7.35
9.51
12.36
15.46
18.16
19.94
20.57
20.16
19.08
17.75
16.46
15.32
14.31
13.36
12.44
11.62
10.95
10.45
10.05
9.63
9.10
8.48
7.89
7.52
7.42
7.47
7.30
6.49
4.81
2.35
-0.49
-3.13
-5.14
-6.36
-6.92
-7.09
-7.10
-7.03
-6.83
-6.44
-5.87
-5.27
-4.81
-4.61
-4.65
-4.82
-4.96
-4.93
-4.64
-4.12
-3.44
-2.74
-2.15
-1.78
-1.64
-1.65
-1.64
-1.46
-1.01
-0.31
0.52
1.31
1.95
2.37
2.60
2.73
2.82
2.91
3.00
3.15
3.42
3.86
4.45
5.03
5.32
5.06
4.10
2.50
0.54
-1.43
-3.12
-4.38
-5.24
-5.76
-6.03
-6.06
-5.86
-5.46
-4.96
-4.45
-4.05
-3.78
-3.61
-3.47
-3.32
-3.14
-2.95
-2.81
-2.76
-2.82
-2.97
-3.17
-3.35
-3.46
-3.48
-3.41
-3.29
-3.18
-3.09
-3.02
-2.90
-2.65
-2.26
-1.75
-1.22
-0.76
-0.49
-0.40
-0.44
-0.55
-0.64
-0.66
-0.61
-0.50
-0.35
-0.19
-0.04
0.07
0.10
0.08
0.01
-0.03
-0.01
0.12
0.33
0.56
0.75
0.82
0.78
0.65
0.49
0.34
0.24
0.17
0.16
0.24
0.43
0.73
1.05
1.26
1.24
0.97
0.51
0.02
-0.38
-0.60
-0.65
-0.61
-0.54
-0.46
-0.37
-0.23
-0.06
0.12
0.24
0.22
0.05
-0.25
-0.59
-0.87
-0.99
-0.95
-0.76
-0.50
-0.22
0.03
0.26
0.47
0.67
0.81
0.89
0.89
0.87
0.89
1.00
1.20
1.44
1.61
1.63
1.45
1.12
0.76
0.50
0.41
0.44
0.51
0.50
0.35
0.11
-0.10
-0.19
-0.11
0.10
0.32
0.46
0.50
0.48
0.49
0.55
0.65
0.75
0.84
0.95
1.14
1.47
1.90
2.30
2.54
2.53
2.31
2.05
1.98
2.24
2.80
3.48
3.96
3.97
3.41
2.39
1.26
0.41
0.15
0.59
1.54
2.53
2.89
1.88
-1.06
-6.13
-12.96
-20.63
-27.91
-33.58
-36.87
-37.60
-36.21
-33.46
-30.13
-26.75
-23.59
-20.76
-18.37
-16.58
-15.62
-15.60
-16.49
-17.97
-19.54
-20.61
-20.66
-19.40
-16.79
-13.06
-8.63
-3.92
0.76
5.21
9.40
13.31
16.92
20.13
22.80
24.81
26.13
26.85
27.08
26.98
26.63
26.03
25.15
23.98
22.53
20.86
19.10
17.36
15.75
14.35
13.18
12.21
11.34
10.51
9.63
8.70
7.77
6.89
6.12
5.46
4.90
4.40
3.95
3.52
3.12
2.77
2.43
2.10
1.74
1.38
1.04
0.76
0.59
0.53
0.58
0.72
0.89
1.08
1.26
1.39
1.46
1.48
1.44
1.35
1.24
1.08
0.87
0.57
0.18
-0.29
-0.75
-1.13
-1.33
-1.32
-1.12
-0.80
-0.47
-0.22
-0.11
-0.16
-0.35
-0.64
-0.95
-1.18
-1.24
-1.09
-0.75
-0.29
0.17
0.56
0.85
1.05
1.19
1.26
1.21
1.01
0.66
0.25
-0.10
-0.28
-0.30
-0.21
-0.16
-0.25
-0.48
-0.77
-0.98
-1.02
-0.85
-0.52
-0.11
0.31
0.71
1.08
1.37
1.51
1.45
1.17
0.73
0.23
-0.24
-0.59
-0.79
-0.87
-0.85
-0.78
-0.71
-0.68
-0.74
-0.91
-1.17
-1.46
-1.67
-1.72
-1.58
-1.34
-1.10
-0.98
-1.04
-1.23
-1.44
-1.53
-1.44
-1.21
-0.93
-0.72
-0.63
-0.65
-0.72
-0.79
-0.83
-0.83
-0.79
-0.69
-0.52
-0.29
-0.04
0.15
0.21
0.16
0.04
-0.02
0.07
0.34
0.74
1.15
1.41
1.41
1.14
0.68
0.21
-0.07
-0.04
0.26
0.65
0.90
0.82
0.41
-0.19
-0.74
-1.06
-1.06
-0.82
-0.46
-0.10
0.19
0.37
0.44
0.40
0.27
0.06
-0.20
-0.43
-0.58
-0.63
-0.57
-0.41
-0.21
-0.03
0.06
0.02
-0.15
-0.38
-0.61
-0.77
-0.81
-0.73
-0.56
-0.37
-0.24
-0.22
-0.34
-0.56
-0.83
-1.07
-1.28
-1.46
-1.62
-1.73
-1.74
-1.56
-1.16
-0.61
-0.09
0.24
0.26
0.02
-0.32
-0.56
-0.56
-0.33
-0.00
0.27
0.40
0.39
0.35
0.39
0.58
0.88
1.19
1.36
1.33
1.06
0.65
0.19
-0.22
-0.53
-0.73
-0.82
-0.82
-0.75
-0.62
-0.46
-0.33
-0.28
-0.30
-0.35
-0.34
-0.20
0.07
0.37
0.56
0.54
0.28
-0.11
-0.46
-0.64
-0.56
-0.30
0.02
0.23
0.24
0.08
-0.17
-0.36
-0.39
-0.26
-0.05
0.12
0.15
0.03
-0.19
-0.43
-0.60
-0.69
-0.70
-0.66
-0.61
-0.60
-0.66
-0.82
-1.09
-1.43
-1.74
-1.89
-1.79
-1.41
-0.82
-0.15
0.43
0.79
0.89
0.79
0.61
0.50
0.55
0.71
0.88
0.92
0.76
0.45
0.12
-0.08
-0.06
0.16
0.49
0.80
1.00
1.10
1.13
1.14
1.13
1.07
0.91
0.63
0.28
-0.07
-0.35
-0.52
-0.60
-0.63
-0.65
-0.65
-0.61
-0.46
-0.19
0.15
0.47
0.63
0.57
0.32
0.00
-0.26
-0.37
-0.31
-0.13
0.08
0.29
0.49
0.72
0.96
1.16
1.19
1.00
0.62
0.15
-0.22
-0.34
-0.19
0.16
0.56
0.83
0.88
0.73
0.48
0.27
0.19
0.26
0.41
0.54
0.57
0.46
0.25
-0.00
-0.21
-0.32
-0.34
-0.31
-0.27
-0.28
-0.30
-0.31
-0.23
-0.04
0.22
0.46
0.59
0.55
0.36
0.10
-0.10
-0.16
-0.03
0.24
0.58
0.87
1.00
0.93
0.69
0.37
0.11
-0.00
0.08
0.34
0.68
1.02
1.29
1.48
1.63
1.76
1.90
2.07
2.27
2.52
2.79
3.07
3.30
3.40
3.27
2.87
2.22
1.47
0.76
0.24
-0.03
-0.09
-0.07
-0.08
-0.17
-0.35
-0.55
-0.71
-0.80
-0.83
-0.81
-0.75
-0.67
-0.59
-0.57
-0.67
-0.91
-1.26
-1.61
-1.82
-1.79
-1.48
-0.95
-0.33
0.27
0.78
1.15
1.39
1.50
1.48
1.35
1.15
0.98
0.97
1.15
1.51
1.92
2.27
2.46
2.53
2.54
2.59
2.69
2.75
2.64
2.23
1.50
0.55
-0.46
-1.37
-2.09
-2.60
-2.93
-3.13
-3.16
-2.99
-2.60
-2.03
-1.42
-0.95
-0.75
-0.85
-1.16
-1.50
-1.67
-1.60
-1.30
-0.89
-0.52
-0.27
-0.12
0.01
0.21
0.58
1.10
1.73
2.38
3.00
3.55
4.07
4.58
5.10
5.66
6.28
6.99
7.81
8.73
9.71
10.67
11.56
12.35
13.07
13.79
14.63
15.68
17.02
18.59
20.18
21.42
21.82
20.93
18.51
14.59
9.56
3.95
-1.63
-6.71
-10.98
-14.31
-16.74
-18.37
-19.33
-19.77
-19.80
-19.51
-18.98
-18.30
-17.54
-16.72
-15.86
-14.92
-13.87
-12.74
-11.62
-10.64
-9.88
-9.34
-8.93
-8.54
-8.08
-7.55
-6.98
-6.40
-5.79
-5.13
-4.40
-3.65
-2.96
-2.38
-1.94
-1.58
-1.28
-1.03
-0.88
-0.88
-1.02
-1.23
-1.39
-1.41
-1.26
-0.99
-0.65
-0.30
0.04
0.33
0.54
0.61
0.52
0.31
0.08
-0.08
-0.14
-0.14
-0.12
-0.12
-0.11
-0.01
0.23
0.62
1.06
1.42
1.57
1.48
1.17
0.74
0.30
-0.07
-0.30
-0.41
-0.44
-0.45
-0.51
-0.65
-0.89
-1.16
-1.40
-1.58
-1.68
-1.70
-1.64
-1.52
-1.30
-1.01
-0.68
-0.38
-0.18
-0.11
-0.15
-0.25
-0.36
-0.44
-0.52
-0.62
-0.73
-0.83
-0.86
-0.76
-0.54
-0.24
0.06
0.29
0.46
0.63
0.84
1.09
1.33
1.43
1.33
1.04
0.66
0.35
0.20
0.19
0.22
0.16
-0.06
-0.46
-0.95
-1.43
-1.83
-2.08
-2.15
-2.02
-1.71
-1.28
-0.87
-0.59
-0.55
-0.72
-1.01
-1.28
-1.41
-1.37
-1.23
-1.09
-1.06
-1.19
-1.47
-1.82
-2.10
-2.19
-1.98
-1.45
-0.68
0.15
0.83
1.21
1.27
1.10
0.89
0.76
0.77
0.85
0.92
0.92
0.87
0.86
0.95
1.13
1.36
1.52
1.55
1.40
1.09
0.69
0.28
-0.06
-0.27
-0.30
-0.20
-0.00
0.17
0.25
0.19
0.01
-0.22
-0.38
-0.35
-0.09
0.38
0.96
1.49
1.85
2.02
2.03
2.01
2.06
2.18
2.32
2.35
2.17
1.75
1.20
0.67
0.32
0.21
0.28
0.43
0.52
0.52
0.46
0.40
0.38
0.37
0.30
0.14
-0.07
-0.25
-0.27
-0.11
0.19
0.52
0.76
0.84
0.76
0.58
0.34
0.08
-0.17
-0.41
-0.59
-0.68
-0.64
-0.48
-0.21
0.11
0.44
0.71
0.87
0.90
0.81
0.62
0.35
0.05
-0.27
-0.53
-0.70
-0.70
-0.54
-0.28
-0.01
0.14
0.13
-0.01
-0.15
-0.21
-0.15
-0.02
0.07
0.05
-0.07
-0.20
-0.22
-0.09
0.17
0.42
0.52
0.41
0.14
-0.18
-0.41
-0.49
-0.41
-0.23
0.00
0.26
0.54
0.83
1.09
1.25
1.26
1.11
0.86
0.56
0.29
0.07
-0.07
-0.11
-0.04
0.14
0.34
0.47
0.44
0.21
-0.13
-0.47
-0.71
-0.82
-0.80
-0.71
-0.57
-0.38
-0.15
0.06
0.16
0.04
-0.28
-0.70
-1.04
-1.14
-0.95
-0.55
-0.10
0.25
0.41
0.40
0.29
0.12
-0.04
-0.19
-0.32
-0.42
-0.47
-0.50
-0.52
-0.55
-0.58
-0.59
-0.54
-0.44
-0.32
-0.23
-0.22
-0.28
-0.38
-0.47
-0.52
-0.54
-0.57
-0.64
-0.73
-0.76
-0.68
-0.43
-0.06
0.34
0.68
0.84
0.77
0.47
-0.00
-0.54
-1.05
-1.41
-1.56
-1.48
-1.21
-0.85
-0.48
-0.18
0.04
0.20
0.35
0.53
0.79
1.11
1.45
1.75
1.95
2.03
1.97
1.82
1.61
1.37
1.13
0.92
0.78
0.73
0.77
0.83
0.83
0.70
0.47
0.22
0.10
0.17
0.42
0.72
0.91
0.87
0.60
0.21
-0.15
-0.34
-0.32
-0.13
0.14
0.40
0.59
0.70
0.75
0.75
0.75
0.77
0.85
1.00
1.23
1.52
1.85
2.16
2.39
2.48
2.41
2.22
2.02
1.94
2.12
2.59
3.29
4.08
4.78
5.26
5.48
5.50
5.47
5.49
5.61
5.77
5.80
5.52
4.79
3.60
2.07
0.41
-1.19
-2.59
-3.75
-4.68
-5.41
-5.95
-6.31
-6.51
-6.60
-6.61
-6.56
-6.40
-6.08
-5.56
-4.90
-4.20
-3.56
-3.06
-2.74
-2.60
-2.60
-2.69
-2.81
-2.85
-2.72
-2.33
-1.73
-1.05
-0.45
-0.13
-0.13
-0.40
-0.76
-1.03
-1.07
-0.87
-0.54
-0.21
-0.05
-0.11
-0.39
-0.79
-1.16
-1.39
-1.37
-1.11
-0.68
-0.20
0.18
0.40
0.44
0.37
0.26
0.15
0.01
-0.18
-0.43
-0.67
-0.81
-0.74
-0.46
-0.04
0.39
0.70
0.80
0.67
0.34
-0.11
-0.56
-0.87
-0.93
-0.69
-0.22
0.31
0.69
0.78
0.58
0.22
-0.11
-0.28
-0.29
-0.20
-0.12
-0.06
0.00
0.12
0.29
0.45
0.53
0.46
0.30
0.13
0.05
0.13
0.34
0.61
0.87
1.05
1.10
1.02
0.83
0.56
0.26
-0.01
-0.23
-0.36
-0.41
-0.38
-0.27
-0.08
0.16
0.40
0.59
0.67
0.62
0.49
0.34
0.25
0.28
0.42
0.60
0.76
0.79
0.68
0.41
0.06
-0.30
-0.59
-0.75
-0.77
-0.64
-0.43
-0.18
0.02
0.12
0.10
0.00
-0.12
-0.21
-0.26
-0.28
-0.29
-0.31
-0.32
-0.32
-0.31
-0.30
-0.36
-0.50
-0.70
-0.89
-0.96
-0.85
-0.58
-0.24
0.02
0.11
0.00
-0.25
-0.53
-0.73
-0.80
-0.74
-0.61
-0.46
-0.32
-0.20
-0.09
0.04
0.20
0.37
0.50
0.57
0.55
0.46
0.40
0.42
0.58
0.84
1.09
1.20
1.08
0.73
0.27
-0.15
-0.38
-0.38
-0.19
0.09
0.37
0.59
0.75
0.82
0.75
0.49
0.06
-0.44
-0.85
-1.02
-0.87
-0.49
-0.04
0.30
0.46
0.45
0.38
0.34
0.36
0.43
0.52
0.61
0.69
0.76
0.78
0.69
0.47
0.14
-0.21
-0.50
-0.67
-0.71
-0.67
-0.57
-0.48
-0.41
-0.40
-0.45
-0.56
-0.66
-0.69
-0.59
-0.35
-0.02
0.32
0.56
0.65
0.56
0.35
0.09
-0.12
-0.22
-0.19
-0.05
0.13
0.27
0.36
0.39
0.37
0.31
0.21
0.05
-0.14
-0.27
-0.27
-0.06
0.34
0.83
1.27
1.51
1.46
1.13
0.62
0.04
-0.44
-0.75
-0.86
-0.81
-0.68
-0.55
-0.48
-0.46
-0.47
-0.44
-0.34
-0.18
-0.00
0.13
0.18
0.13
0.05
-0.00
0.02
0.10
0.21
0.28
0.28
0.21
0.06
-0.15
-0.40
-0.65
-0.81
-0.84
-0.70
-0.46
-0.21
-0.05
0.01
0.03
0.09
0.26
0.48
0.65
0.66
0.49
0.22
-0.01
-0.09
0.02
0.28
0.59
0.89
1.11
1.23
1.23
1.08
0.80
0.41
0.01
-0.32
-0.52
-0.58
-0.54
-0.47
-0.43
-0.43
-0.44
-0.46
-0.45
-0.42
-0.36
-0.25
-0.08
0.14
0.34
0.46
0.45
0.30
0.08
-0.11
-0.21
-0.18
-0.07
0.07
0.16
0.20
0.20
0.18
0.12
0.02
-0.15
-0.38
-0.61
-0.78
-0.82
-0.72
-0.52
-0.32
-0.17
-0.09
-0.06
-0.07
-0.11
-0.22
-0.41
-0.69
-0.99
-1.20
-1.21
-0.98
-0.55
-0.06
0.33
0.49
0.39
0.11
-0.17
-0.28
-0.12
0.27
0.72
1.07
1.18
1.04
0.73
0.39
0.12
-0.00
0.02
0.15
0.33
0.50
0.58
0.55
0.43
0.27
0.16
0.16
0.27
0.45
0.60
0.61
0.45
0.17
-0.12
-0.28
-0.25
-0.07
0.17
0.37
0.45
0.45
0.41
0.38
0.34
0.24
0.03
-0.26
-0.54
-0.69
-0.66
-0.49
-0.29
-0.20
-0.26
-0.44
-0.62
-0.70
-0.64
-0.45
-0.21
-0.01
0.11
0.14
0.11
0.07
0.04
0.01
0.00
0.05
0.17
0.37
0.60
0.79
0.85
0.73
0.45
0.09
-0.21
-0.38
-0.39
-0.30
-0.20
-0.14
-0.14
-0.18
-0.19
-0.14
-0.02
0.17
0.38
0.57
0.66
0.53
0.17
-0.39
-1.01
-1.47
-1.62
-1.41
-0.94
-0.40
0.01
0.20
0.16
-0.01
-0.19
-0.30
-0.31
-0.25
-0.19
-0.21
-0.35
-0.56
-0.76
-0.84
-0.76
-0.54
-0.29
-0.10
-0.03
-0.01
0.05
0.24
0.52
0.75
0.80
0.60
0.25
-0.06
-0.17
-0.02
0.28
0.54
0.61
0.48
0.31
0.25
0.41
0.72
1.02
1.11
0.91
0.48
-0.02
-0.40
-0.54
-0.42
-0.17
0.09
0.27
0.34
0.35
0.32
0.28
0.21
0.05
-0.20
-0.51
-0.77
-0.91
-0.85
-0.64
-0.37
-0.13
-0.02
-0.03
-0.09
-0.12
-0.04
0.19
0.48
0.72
0.79
0.61
0.24
-0.19
-0.52
-0.67
-0.59
-0.38
-0.13
0.08
0.20
0.24
0.19
0.08
-0.08
-0.26
-0.43
-0.57
-0.66
-0.69
-0.66
-0.56
-0.37
-0.11
0.19
0.48
0.69
0.83
0.89
0.93
0.95
0.95
0.89
0.73
0.51
0.27
0.08
-0.04
-0.10
-0.14
-0.20
-0.30
-0.44
-0.58
-0.70
-0.76
-0.76
-0.68
-0.55
-0.39
-0.24
-0.17
-0.24
-0.44
-0.70
-0.89
-0.91
-0.70
-0.31
0.11
0.42
0.50
0.38
0.13
-0.09
-0.20
-0.15
0.01
0.21
0.40
0.54
0.59
0.51
0.28
-0.08
-0.50
-0.87
-1.03
-0.89
-0.48
0.10
0.67
1.09
1.27
1.19
0.93
0.58
0.26
0.04
-0.03
0.01
0.12
0.21
0.24
0.18
0.06
-0.06
-0.10
-0.01
0.20
0.49
0.79
1.01
1.09
1.01
0.77
0.42
0.02
-0.34
-0.58
-0.62
-0.43
-0.06
0.39
0.78
0.99
0.96
0.71
0.30
-0.18
-0.66
-1.07
-1.34
-1.41
-1.28
-0.98
-0.60
-0.24
0.04
0.24
0.37
0.47
0.52
0.47
0.29
-0.02
-0.42
-0.79
-1.04
-1.08
-0.91
-0.57
-0.16
0.21
0.46
0.55
0.50
0.38
0.23
0.07
-0.08
-0.23
-0.36
-0.45
-0.46
-0.38
-0.22
-0.02
0.19
0.34
0.41
0.41
0.36
0.32
0.30
0.35
0.46
0.60
0.70
0.67
0.49
0.17
-0.20
-0.52
-0.70
-0.71
-0.58
-0.40
-0.23
-0.12
-0.06
-0.00
0.07
0.16
0.23
0.25
0.20
0.08
-0.08
-0.23
-0.32
-0.32
-0.23
-0.09
0.06
0.18
0.23
0.22
0.19
0.17
0.19
0.24
0.29
0.28
0.18
-0.01
-0.22
-0.37
-0.40
-0.30
-0.10
0.12
0.28
0.34
0.30
0.20
0.08
-0.03
-0.10
-0.15
-0.21
-0.30
-0.44
-0.63
-0.78
-0.81
-0.67
-0.38
-0.06
0.18
0.27
0.20
0.09
0.03
0.06
0.15
0.23
0.22
0.17
0.13
0.20
0.38
0.62
0.82
0.91
0.88
0.77
0.62
0.44
0.23
-0.03
-0.30
-0.52
-0.62
-0.58
-0.42
-0.20
0.00
0.14
0.21
0.21
0.16
0.08
-0.00
-0.06
-0.05
0.05
0.22
0.40
0.51
0.51
0.39
0.19
-0.02
-0.18
-0.30
-0.38
-0.42
-0.40
-0.28
-0.05
0.22
0.44
0.49
0.34
0.04
-0.30
-0.53
-0.59
-0.50
-0.35
-0.21
-0.13
-0.09
-0.03
0.07
0.21
0.34
0.40
0.39
0.30
0.19
0.09
0.08
0.17
0.37
0.63
0.88
1.03
1.00
0.80
0.49
0.20
-0.03
-0.19
-0.35
-0.59
-0.91
-1.22
-1.37
-1.28
-0.97
-0.57
-0.23
-0.03
0.05
0.05
0.03
-0.05
-0.22
-0.50
-0.80
-0.97
-0.92
-0.67
-0.34
-0.12
-0.11
-0.25
-0.37
-0.33
-0.10
0.23
0.49
0.55
0.44
0.25
0.12
0.12
0.24
0.39
0.48
0.47
0.36
0.18
-0.05
-0.27
-0.44
-0.54
-0.54
-0.47
-0.39
-0.35
-0.39
-0.43
-0.40
-0.24
0.04
0.34
0.56
0.61
0.53
0.44
0.42
0.51
0.63
0.67
0.59
0.39
0.17
0.04
0.06
0.20
0.35
0.41
0.32
0.06
-0.29
-0.65
-0.89
-0.90
-0.67
-0.26
0.20
0.56
0.73
0.71
0.56
0.36
0.15
-0.06
-0.27
-0.43
-0.51
-0.44
-0.22
0.06
0.28
0.33
0.16
-0.17
-0.52
-0.77
-0.87
-0.82
-0.71
-0.61
-0.58
-0.60
-0.63
-0.63
-0.59
-0.50
-0.38
-0.22
-0.02
0.20
0.40
0.55
0.62
0.61
0.56
0.53
0.53
0.53
0.47
0.31
0.07
-0.19
-0.35
-0.36
-0.20
0.05
0.27
0.34
0.22
-0.05
-0.34
-0.51
-0.46
-0.22
0.07
0.24
0.16
-0.16
-0.62
-1.05
-1.32
-1.40
-1.32
-1.16
-1.02
-0.95
-1.01
-1.22
-1.60
-2.09
-2.63
-3.07
-3.32
-3.37
-3.32
-3.30
-3.43
-3.75
-4.20
-4.63
-4.89
-4.88
-4.57
-4.02
-3.35
-2.69
-2.11
-1.62
-1.16
-0.67
-0.08
0.60
1.32
2.05
2.75
3.41
4.02
4.53
4.90
5.10
5.13
4.98
4.70
4.33
3.92
3.53
3.23
3.07
3.04
3.11
3.19
3.16
2.99
2.66
2.22
1.73
1.24
0.80
0.40
0.03
-0.30
-0.60
-0.85
-1.05
-1.21
-1.35
-1.46
-1.56
-1.63
-1.64
-1.62
-1.60
-1.64
-1.76
-1.96
-2.15
-2.27
-2.28
-2.22
-2.16
-2.19
-2.32
-2.52
-2.69
-2.75
-2.68
-2.52
-2.36
-2.27
-2.29
-2.38
-2.44
-2.39
-2.17
-1.80
-1.37
-1.01
-0.83
-0.87
-1.09
-1.40
-1.65
-1.78
-1.74
-1.62
-1.52
-1.51
-1.55
-1.48
-1.05
-0.05
1.55
3.56
5.61
7.26
8.20
8.37
7.95
7.26
6.61
6.16
5.88
5.65
5.30
4.76
4.07
3.34
2.70
2.23
1.93
1.74
1.58
1.40
1.21
1.03
0.90
0.80
0.67
0.45
0.06
-0.47
-1.07
-1.59
-1.90
-1.93
-1.66
-1.22
-0.76
-0.44
-0.38
-0.58
-0.97
-1.37
-1.63
-1.67
-1.50
-1.25
-1.09
-1.15
-1.50
-2.05
-2.62
-2.97
-2.96
-2.56
-1.93
-1.37
-1.17
-1.53
-2.46
-3.75
-5.04
-5.98
-6.40
-6.34
-6.13
-6.19
-6.93
-8.46
-10.57
-12.74
-14.33
-14.98
-14.76
-14.22
-14.18
-15.32
-17.85
-21.40
-25.19
-28.37
-30.29
-30.70
-29.75
-28.06
-26.74
-27.33
-31.28
-39.14
-49.76
-60.13
-66.23
-64.51
-53.52
-34.62
-11.44
11.60
31.03
45.24
54.46
59.86
62.60
63.37
62.51
60.36
57.54
54.80
52.63
51.04
49.46
47.20
43.74
39.15
34.10
29.64
26.75
26.09
27.78
31.39
36.18
41.29
46.07
50.17
53.60
56.61
59.46
62.30
65.05
67.51
69.55
71.25
72.91
75.01
78.07
82.58
88.94
97.36
107.64
118.97
129.94
138.89
144.56
146.85
147.06
147.26
149.17
152.73
155.54
153.37
141.71
117.35
79.53
30.07
-27.12
-86.83
-143.24
-190.53
-223.84
-240.86
-243.32
-237.38
-232.09
-236.10
-254.11
-284.98
-322.52
-358.61
-386.58
-403.11
-407.97
-402.13
-386.07
-359.29
-321.34
-272.96
-216.60
-155.82
-94.08
-34.10
21.96
71.80
112.82
142.57
159.89
165.68
162.72
154.70
144.91
135.43
127.13
120.14
114.44
110.00
106.64
103.83
100.75
96.58
90.88
83.81
75.92
68.00
60.66
54.15
48.43
43.29
38.56
34.21
30.45
27.53
25.60
24.55
23.94
23.16
21.71
19.41
16.51
13.55
11.15
9.69
9.21
9.48
10.11
10.74
11.12
11.13
10.77
10.12
9.35
8.66
8.22
8.13
8.37
8.79
9.27
9.72
10.22
10.97
12.18
13.96
16.16
18.42
20.28
21.39
21.68
21.41
21.07
21.14
21.84
23.06
24.39
25.34
25.55
24.97
23.79
22.39
21.19
20.48
20.40
20.90
21.77
22.72
23.44
23.73
23.57
23.18
22.96
23.29
24.19
25.17
25.14
22.71
16.73
6.81
-6.36
-21.11
-35.34
-47.15
-55.45
-60.11
-61.74
-61.21
-59.29
-56.44
-52.99
-49.26
-45.68
-42.68
-40.53
-39.14
-38.04
-36.61
-34.23
-30.46
-25.17
-18.50
-10.92
-3.08
4.25
10.40
15.00
18.07
19.93
21.05
21.77
22.31
22.72
23.06
23.50
24.22
25.36
26.81
28.31
29.60
30.58
31.44
32.60
34.45
37.12
40.33
43.46
45.86
47.20
47.70
48.12
49.45
52.33
56.62
61.26
64.64
65.42
63.18
58.82
54.20
51.42
51.98
56.31
63.85
73.33
82.91
90.27
92.68
87.49
72.90
48.72
16.65
-20.18
-58.23
-94.48
-126.78
-153.66
-173.99
-186.94
-192.52
-192.08
-188.43
-185.24
-185.74
-191.57
-202.06
-214.20
-223.27
-223.95
-211.90
-185.47
-146.79
-101.73
-58.19
-23.48
-1.73
7.27
7.17
2.78
-2.32
-7.04
-12.43
-20.23
-31.24
-44.31
-56.21
-62.42
-58.48
-41.59
-11.93
27.06
69.57
109.33
141.88
165.72
182.10
193.53
201.99
208.07
211.37
211.62
209.64
207.40
207.10
210.02
215.94
223.32
229.89
233.47
232.17
224.40
208.92
184.94
152.46
112.37
66.25
15.96
-36.56
-89.14
-139.17
-183.53
-219.13
-243.86
-257.55
-262.18
-261.29
-258.47
-256.12
-254.84
-253.79
-251.88
-248.88
-246.08
-245.67
-249.55
-257.77
-267.70
-274.44
-272.23
-256.55
-225.56
-180.62
-125.55
-65.48
-5.71
48.93
94.49
128.14
148.63
156.70
155.01
147.40
137.77
128.97
122.28
117.62
114.24
111.19
107.76
103.50
98.17
91.72
84.31
76.30
68.13
60.27
53.14
47.15
42.70
40.12
39.48
40.48
42.40
44.38
45.65
45.82
44.95
43.36
41.44
39.39
37.22
34.91
32.56
30.40
28.73
27.71
27.23
26.95
26.52
25.79
24.94
24.44
24.85
26.46
29.20
32.57
35.96
38.86
41.16
43.12
45.19
47.83
51.22
55.30
59.84
64.58
69.29
73.86
78.18
82.19
85.87
89.30
92.60
95.81
98.60
100.16
99.19
94.20
83.99
68.05
46.80
21.50
-6.05
-33.88
-60.15
-83.34
-102.35
-116.52
-125.70
-130.26
-131.00
-129.03
-125.51
-121.44
-117.44
-113.79
-110.45
-107.25
-104.06
-100.78
-97.39
-93.92
-90.42
-87.00
-83.90
-81.35
-79.38
-77.63
-75.30
-71.41
-65.25
-56.73
-46.51
-35.68
-25.39
-16.39
-8.94
-3.00
1.54
4.61
6.08
5.88
4.19
1.35
-2.26
-6.49
-11.43
-17.18
-23.52
-29.58
-33.92
-34.95
-31.52
-23.51
-11.96
1.20
13.81
24.13
31.24
35.10
36.29
35.57
33.69
31.19
28.49
25.94
23.88
22.53
22.01
22.16
22.61
22.77
22.13
20.32
17.37
13.64
9.79
6.63
4.88
5.03
7.18
11.04
16.00
21.33
26.42
30.91
34.69
37.81
40.28
42.01
42.90
42.95
42.37
41.52
40.76
40.23
39.77
39.04
37.70
35.63
33.01
30.19
27.49
25.05
22.78
20.42
17.72
14.59
11.10
7.52
4.18
1.38
-0.69
-1.96
-2.51
-2.44
-1.89
-0.90
0.45
2.08
3.76
5.10
5.66
5.05
3.13
0.12
-3.46
-6.91
-9.62
-11.19
-11.52
-10.81
-9.38
-7.57
-5.64
-3.68
-1.69
0.38
2.54
4.74
6.83
8.65
10.15
11.38
12.53
13.81
15.36
17.14
19.01
20.76
22.24
23.37
24.10
24.32
23.86
22.52
20.18
16.91
12.94
8.48
3.64
-1.62
-7.37
-13.51
-19.57
-24.85
-28.61
-30.42
-30.36
-28.98
-27.01
-25.03
-23.28
-21.63
-19.83
-17.70
-15.30
-12.86
-10.69
-8.95
-7.63
-6.57
-5.50
-4.23
-2.62
-0.70
1.41
3.54
5.48
7.08
8.24
9.03
9.61
10.27
11.29
12.89
15.12
17.80
20.61
23.14
25.11
26.43
27.36
28.44
30.32
33.53
38.16
43.64
48.70
51.73
51.29
46.77
38.83
29.18
20.07
13.52
10.57
11.00
13.35
15.36
14.70
9.73
0.14
-12.88
-26.94
-39.37
-48.06
-52.20
-52.30
-49.70
-45.81
-41.58
-37.32
-33.01
-28.65
-24.48
-20.81
-17.81
-15.36
-13.07
-10.59
-7.67
-4.36
-0.87
2.55
5.78
8.87
11.89
14.82
17.32
18.79
18.52
15.91
10.84
3.68
-4.71
-13.25
-20.90
-26.93
-30.96
-33.03
-33.45
-32.67
-31.16
-29.33
-27.45
-25.67
-24.04
-22.54
-21.09
-19.65
-18.21
-16.79
-15.50
-14.38
-13.46
-12.69
-11.94
-11.12
-10.15
-9.07
-7.96
-6.94
-6.11
-5.50
-5.10
-4.83
-4.61
-4.36
-4.03
-3.63
-3.22
-2.85
-2.57
-2.40
-2.33
-2.33
-2.40
-2.52
-2.68
-2.82
-2.93
-2.96
-2.95
